{
    "AcquisitionMatrixPE": 88,
    "AcquisitionNumber": 1,
    "AcquisitionTime": "09:12:29.000000",
    "BodyPartExamined": "BRAIN",
    "CoilString": "48HAP",
    "ConversionSoftware": "dcm2niix",
    "ConversionSoftwareVersion": "v1.0.20190410  GCC6.3.0",
    "DeviceSerialNumber": "0000000319335MR2",
    "EchoTime": 0.03,
    "EffectiveEchoSpacing": 0.000564,
    "FlipAngle": 75,
    "ImageOrientationPatientDICOM": [
        1,
        0,
        0,
        0,
        0.990227,
        -0.139469
    ],
    "ImageType": [
        "ORIGINAL",
        "PRIMARY",
        "OTHER"
    ],
    "ImagingFrequency": 127.754,
    "InPlanePhaseEncodingDirectionDICOM": "COL",
    "InstitutionName": "Iowa_MRRF",
    "IntendedFor": [
        "func/sub-10040_task-ThalHi_run-005_bold.nii.gz",
        "func/sub-10040_task-ThalHi_run-006_bold.nii.gz",
        "func/sub-10040_task-ThalHi_run-007_bold.nii.gz",
        "func/sub-10040_task-ThalHi_run-008_bold.nii.gz"
    ],
    "MRAcquisitionType": "2D",
    "MagneticFieldStrength": 3,
    "Manufacturer": "GE",
    "ManufacturersModelName": "SIGNA_Premier",
    "Modality": "MR",
    "PatientPosition": "HFS",
    "PercentPhaseFOV": 100,
    "PhaseEncodingDirection": "j-",
    "PhaseEncodingPolarityGE": "Unflipped",
    "PixelBandwidth": 3906.25,
    "ProcedureStepDescription": "HWANG_NET",
    "ProtocolName": "EPI_FM_pepolar=1",
    "ReconMatrixPE": 128,
    "RepetitionTime": 1.8,
    "SAR": 0.0830356,
    "ScanOptions": "SAT_GEMS_EDR_GEMS_MP_GEMS_EPI_GEMS_HYPERBAND_GEMS_FS",
    "ScanningSequence": "EP_GR",
    "SequenceVariant": "SS",
    "SeriesDescription": "EPI_FM_pepolar=1",
    "SeriesNumber": 11,
    "SliceThickness": 2.5,
    "SliceTiming": [
        0,
        0.9,
        0.075,
        0.975,
        0.15,
        1.05,
        0.225,
        1.125,
        0.3,
        1.2,
        0.375,
        1.275,
        0.45,
        1.35,
        0.525,
        1.425,
        0.6,
        1.5,
        0.675,
        1.575,
        0.75,
        1.725,
        0.825,
        1.65,
        0,
        0.9,
        0.075,
        0.975,
        0.15,
        1.05,
        0.225,
        1.125,
        0.3,
        1.2,
        0.375,
        1.275,
        0.45,
        1.35,
        0.525,
        1.425,
        0.6,
        1.5,
        0.675,
        1.575,
        0.75,
        1.725,
        0.825,
        1.65
    ],
    "SoftwareVersions": "28_LX_MR_Software_release:RX28.0_R05_2035.a",
    "SpacingBetweenSlices": 2.5,
    "StationName": "Iowa3T",
    "TotalReadoutTime": 0.071628,
    "TriggerDelayTime": 10650,
    "dcmmeta_affine": [
        [
            -1.7187999486923218,
            0.0,
            0.0,
            109.92193603515625
        ],
        [
            0.0,
            1.7020013332366943,
            -0.34867095947265625,
            -112.08594512939453
        ],
        [
            0.0,
            0.239718496799469,
            2.4755630493164062,
            -53.09636306762695
        ],
        [
            0.0,
            0.0,
            0.0,
            1.0
        ]
    ],
    "dcmmeta_reorient_transform": [
        [
            0.0,
            -1.0,
            0.0,
            127.0
        ],
        [
            1.0,
            0.0,
            0.0,
            0.0
        ],
        [
            0.0,
            0.0,
            -1.0,
            47.0
        ],
        [
            0.0,
            0.0,
            0.0,
            1.0
        ]
    ],
    "dcmmeta_shape": [
        128,
        128,
        48,
        6
    ],
    "dcmmeta_slice_dim": 2,
    "dcmmeta_version": 0.6,
    "global": {
        "const": {
            "AcquisitionMatrix": [
                88,
                0,
                0,
                88
            ],
            "AcquisitionNumber": 1,
            "AcquisitionTime": "091229",
            "AnatomicRegionSequence": [
                {
                    "CodeMeaning": "Brain",
                    "CodeValue": "T-A0100",
                    "CodingSchemeDesignator": "SRT"
                }
            ],
            "AngioFlag": "N",
            "BeatRejectionFlag": "Y",
            "BitsAllocated": 16,
            "BitsStored": 16,
            "BodyPartExamined": "BRAIN",
            "CardiacNumberOfImages": 0,
            "Columns": 128,
            "ContentTime": "091229",
            "EchoNumbers": 1,
            "EchoTime": 30.0,
            "EchoTrainLength": 1,
            "FlipAngle": 75.0,
            "GroupLength_0X40_0X0": 98,
            "GroupLength_0X7FE0_0X0": 32780,
            "HeartRate": 0,
            "HighBit": 15,
            "ImageType": [
                "ORIGINAL",
                "PRIMARY",
                "OTHER"
            ],
            "ImagedNucleus": "1H",
            "ImagesInAcquisition": 288,
            "ImagingFrequency": 127.753647,
            "InPlanePhaseEncodingDirection": "COL",
            "MRAcquisitionType": "2D",
            "MagneticFieldStrength": 3.0,
            "Manufacturer": "GE MEDICAL SYSTEMS",
            "ManufacturerModelName": "SIGNA Premier",
            "Modality": "MR",
            "NumberOfAverages": 1.0,
            "NumberOfTemporalPositions": 6,
            "PercentPhaseFieldOfView": 100.0,
            "PercentSampling": 100.0,
            "PerformedLocation": "Iowa",
            "PerformedProcedureStepStartTime": "083203",
            "PhotometricInterpretation": "MONOCHROME2",
            "PixelBandwidth": 3906.25,
            "PixelRepresentation": 1,
            "PixelSpacing": [
                1.7188,
                1.7188
            ],
            "ProtocolName": "HWANG_NET_THALHI",
            "ReceiveCoilName": "48HAP",
            "ReconstructionDiameter": 220.0,
            "ReferencedPerformedProcedureStepSequence": [
                {
                    "ReferencedSOPClassUID": "1.2.840.10008.3.1.2.3.3",
                    "ReferencedSOPInstanceUID": "1.2.840.113619.6.475.19458795519114512628967492041596396189"
                }
            ],
            "RepetitionTime": 1800.0,
            "Rows": 128,
            "SAR": 0.0830356,
            "SamplesPerPixel": 1,
            "ScanOptions": [
                "SAT_GEMS",
                "EDR_GEMS",
                "MP_GEMS",
                "EPI_GEMS",
                "HYPERBAND_GEMS",
                "FS"
            ],
            "ScanningSequence": [
                "EP",
                "GR"
            ],
            "SequenceVariant": "SS",
            "SeriesDescription": "EPI FM pepolar=1",
            "SeriesNumber": 11,
            "SeriesTime": "091229",
            "SliceThickness": 2.5,
            "SmallestImagePixelValue": 0,
            "SoftwareVersions": [
                "28",
                "LX",
                "MR Software release:RX28.0_R05_2035.a"
            ],
            "SpacingBetweenSlices": 2.5,
            "SpecificCharacterSet": "ISO_IR 100",
            "StackID": "1",
            "StudyID": "1400",
            "StudyTime": "083210",
            "TriggerWindow": 0,
            "VariableFlipAngleFlag": "N"
        },
        "slices": {
            "InstanceNumber": [
                1,
                2,
                3,
                4,
                5,
                6,
                7,
                8,
                9,
                10,
                11,
                12,
                13,
                14,
                15,
                16,
                17,
                18,
                19,
                20,
                21,
                22,
                23,
                24,
                25,
                26,
                27,
                28,
                29,
                30,
                31,
                32,
                33,
                34,
                35,
                36,
                37,
                38,
                39,
                40,
                41,
                42,
                43,
                44,
                45,
                46,
                47,
                48,
                49,
                50,
                51,
                52,
                53,
                54,
                55,
                56,
                57,
                58,
                59,
                60,
                61,
                62,
                63,
                64,
                65,
                66,
                67,
                68,
                69,
                70,
                71,
                72,
                73,
                74,
                75,
                76,
                77,
                78,
                79,
                80,
                81,
                82,
                83,
                84,
                85,
                86,
                87,
                88,
                89,
                90,
                91,
                92,
                93,
                94,
                95,
                96,
                97,
                98,
                99,
                100,
                101,
                102,
                103,
                104,
                105,
                106,
                107,
                108,
                109,
                110,
                111,
                112,
                113,
                114,
                115,
                116,
                117,
                118,
                119,
                120,
                121,
                122,
                123,
                124,
                125,
                126,
                127,
                128,
                129,
                130,
                131,
                132,
                133,
                134,
                135,
                136,
                137,
                138,
                139,
                140,
                141,
                142,
                143,
                144,
                145,
                146,
                147,
                148,
                149,
                150,
                151,
                152,
                153,
                154,
                155,
                156,
                157,
                158,
                159,
                160,
                161,
                162,
                163,
                164,
                165,
                166,
                167,
                168,
                169,
                170,
                171,
                172,
                173,
                174,
                175,
                176,
                177,
                178,
                179,
                180,
                181,
                182,
                183,
                184,
                185,
                186,
                187,
                188,
                189,
                190,
                191,
                192,
                193,
                194,
                195,
                196,
                197,
                198,
                199,
                200,
                201,
                202,
                203,
                204,
                205,
                206,
                207,
                208,
                209,
                210,
                211,
                212,
                213,
                214,
                215,
                216,
                217,
                218,
                219,
                220,
                221,
                222,
                223,
                224,
                225,
                226,
                227,
                228,
                229,
                230,
                231,
                232,
                233,
                234,
                235,
                236,
                237,
                238,
                239,
                240,
                241,
                242,
                243,
                244,
                245,
                246,
                247,
                248,
                249,
                250,
                251,
                252,
                253,
                254,
                255,
                256,
                257,
                258,
                259,
                260,
                261,
                262,
                263,
                264,
                265,
                266,
                267,
                268,
                269,
                270,
                271,
                272,
                273,
                274,
                275,
                276,
                277,
                278,
                279,
                280,
                281,
                282,
                283,
                284,
                285,
                286,
                287,
                288
            ],
            "LargestImagePixelValue": [
                5546,
                5066,
                5325,
                4726,
                5300,
                5053,
                5524,
                4848,
                5450,
                5282,
                5501,
                5151,
                6231,
                5079,
                5782,
                5590,
                6362,
                6031,
                6416,
                6594,
                8084,
                7660,
                8593,
                7188,
                8760,
                8241,
                8870,
                8140,
                8790,
                8855,
                9727,
                9622,
                10148,
                9305,
                9962,
                10599,
                11102,
                9361,
                10482,
                10758,
                11766,
                10817,
                11699,
                11449,
                11271,
                11995,
                11388,
                8118,
                6068,
                4093,
                4395,
                4057,
                3983,
                4342,
                4250,
                3736,
                4739,
                3946,
                4246,
                4384,
                4529,
                4187,
                4550,
                4729,
                5093,
                5244,
                5172,
                5350,
                6135,
                6164,
                6608,
                6185,
                6409,
                6731,
                6813,
                6748,
                6627,
                7555,
                7247,
                8318,
                8774,
                7665,
                7790,
                8781,
                8745,
                7889,
                8731,
                8807,
                9780,
                9362,
                9996,
                9782,
                9478,
                10421,
                9869,
                7418,
                3800,
                3920,
                3948,
                4048,
                3831,
                4166,
                4057,
                3682,
                4185,
                3835,
                4077,
                4398,
                4135,
                4079,
                4424,
                4562,
                4940,
                5175,
                5071,
                5164,
                5790,
                5724,
                6075,
                5924,
                5902,
                6405,
                6291,
                6509,
                6498,
                7204,
                7157,
                7789,
                8400,
                7373,
                7306,
                8163,
                8210,
                7492,
                8172,
                8210,
                9012,
                8778,
                9427,
                9145,
                8816,
                9864,
                9329,
                6712,
                4629,
                3619,
                3926,
                3942,
                3878,
                4195,
                4049,
                3616,
                4069,
                3846,
                4042,
                4269,
                4132,
                4056,
                4347,
                4539,
                4914,
                5120,
                5145,
                5188,
                5564,
                5583,
                5930,
                5813,
                5893,
                6424,
                6149,
                6454,
                6474,
                7163,
                6962,
                7654,
                7429,
                7256,
                7222,
                7995,
                7945,
                7361,
                7859,
                8182,
                8800,
                8683,
                9198,
                8759,
                8638,
                9678,
                9106,
                6451,
                4722,
                4284,
                3998,
                3882,
                3813,
                4191,
                4049,
                3633,
                3911,
                3844,
                4059,
                4346,
                4112,
                4090,
                4378,
                4585,
                4929,
                5169,
                5036,
                5173,
                5443,
                5701,
                5762,
                5798,
                5887,
                6452,
                6217,
                6430,
                6477,
                7188,
                6975,
                7612,
                8173,
                7275,
                7169,
                7993,
                7886,
                7358,
                7914,
                8196,
                8725,
                8547,
                9109,
                8895,
                8532,
                9528,
                8532,
                6257,
                5936,
                4071,
                4390,
                3934,
                3809,
                4217,
                4084,
                3650,
                4073,
                3795,
                4087,
                4327,
                4127,
                4084,
                4428,
                4558,
                4803,
                5115,
                5084,
                5009,
                5439,
                5640,
                5843,
                5767,
                5885,
                6343,
                6182,
                6387,
                6199,
                7215,
                7023,
                7576,
                8165,
                7279,
                7162,
                7911,
                7736,
                7230,
                7862,
                7993,
                8754,
                8563,
                9007,
                8879,
                7877,
                9499,
                8913,
                6733
            ],
            "TriggerTime": [
                75.0,
                975.0,
                150.0,
                1050.0,
                225.0,
                1125.0,
                300.0,
                1200.0,
                375.0,
                1275.0,
                450.0,
                1350.0,
                525.0,
                1425.0,
                600.0,
                1500.0,
                675.0,
                1575.0,
                750.0,
                1650.0,
                825.0,
                1800.0,
                900.0,
                1725.0,
                75.0,
                975.0,
                150.0,
                1050.0,
                225.0,
                1125.0,
                300.0,
                1200.0,
                375.0,
                1275.0,
                450.0,
                1350.0,
                525.0,
                1425.0,
                600.0,
                1500.0,
                675.0,
                1575.0,
                750.0,
                1650.0,
                825.0,
                1800.0,
                900.0,
                1725.0,
                1875.0,
                2775.0,
                1950.0,
                2850.0,
                2025.0,
                2925.0,
                2100.0,
                3000.0,
                2175.0,
                3075.0,
                2250.0,
                3150.0,
                2325.0,
                3225.0,
                2400.0,
                3300.0,
                2475.0,
                3375.0,
                2550.0,
                3450.0,
                2625.0,
                3600.0,
                2700.0,
                3525.0,
                1875.0,
                2775.0,
                1950.0,
                2850.0,
                2025.0,
                2925.0,
                2100.0,
                3000.0,
                2175.0,
                3075.0,
                2250.0,
                3150.0,
                2325.0,
                3225.0,
                2400.0,
                3300.0,
                2475.0,
                3375.0,
                2550.0,
                3450.0,
                2625.0,
                3600.0,
                2700.0,
                3525.0,
                3675.0,
                4575.0,
                3750.0,
                4650.0,
                3825.0,
                4725.0,
                3900.0,
                4800.0,
                3975.0,
                4875.0,
                4050.0,
                4950.0,
                4125.0,
                5025.0,
                4200.0,
                5100.0,
                4275.0,
                5175.0,
                4350.0,
                5250.0,
                4425.0,
                5400.0,
                4500.0,
                5325.0,
                3675.0,
                4575.0,
                3750.0,
                4650.0,
                3825.0,
                4725.0,
                3900.0,
                4800.0,
                3975.0,
                4875.0,
                4050.0,
                4950.0,
                4125.0,
                5025.0,
                4200.0,
                5100.0,
                4275.0,
                5175.0,
                4350.0,
                5250.0,
                4425.0,
                5400.0,
                4500.0,
                5325.0,
                5475.0,
                6375.0,
                5550.0,
                6450.0,
                5625.0,
                6525.0,
                5700.0,
                6600.0,
                5775.0,
                6675.0,
                5850.0,
                6750.0,
                5925.0,
                6825.0,
                6000.0,
                6900.0,
                6075.0,
                6975.0,
                6150.0,
                7050.0,
                6225.0,
                7200.0,
                6300.0,
                7125.0,
                5475.0,
                6375.0,
                5550.0,
                6450.0,
                5625.0,
                6525.0,
                5700.0,
                6600.0,
                5775.0,
                6675.0,
                5850.0,
                6750.0,
                5925.0,
                6825.0,
                6000.0,
                6900.0,
                6075.0,
                6975.0,
                6150.0,
                7050.0,
                6225.0,
                7200.0,
                6300.0,
                7125.0,
                7275.0,
                8175.0,
                7350.0,
                8250.0,
                7425.0,
                8325.0,
                7500.0,
                8400.0,
                7575.0,
                8475.0,
                7650.0,
                8550.0,
                7725.0,
                8625.0,
                7800.0,
                8700.0,
                7875.0,
                8775.0,
                7950.0,
                8850.0,
                8025.0,
                9000.0,
                8100.0,
                8925.0,
                7275.0,
                8175.0,
                7350.0,
                8250.0,
                7425.0,
                8325.0,
                7500.0,
                8400.0,
                7575.0,
                8475.0,
                7650.0,
                8550.0,
                7725.0,
                8625.0,
                7800.0,
                8700.0,
                7875.0,
                8775.0,
                7950.0,
                8850.0,
                8025.0,
                9000.0,
                8100.0,
                8925.0,
                9075.0,
                9975.0,
                9150.0,
                10050.0,
                9225.0,
                10125.0,
                9300.0,
                10200.0,
                9375.0,
                10275.0,
                9450.0,
                10350.0,
                9525.0,
                10425.0,
                9600.0,
                10500.0,
                9675.0,
                10575.0,
                9750.0,
                10650.0,
                9825.0,
                10800.0,
                9900.0,
                10725.0,
                9075.0,
                9975.0,
                9150.0,
                10050.0,
                9225.0,
                10125.0,
                9300.0,
                10200.0,
                9375.0,
                10275.0,
                9450.0,
                10350.0,
                9525.0,
                10425.0,
                9600.0,
                10500.0,
                9675.0,
                10575.0,
                9750.0,
                10650.0,
                9825.0,
                10800.0,
                9900.0,
                10725.0
            ],
            "WindowCenter": [
                3327.0,
                3039.0,
                3195.0,
                2835.0,
                3180.0,
                3031.0,
                3314.0,
                2908.0,
                3270.0,
                3169.0,
                3300.0,
                3090.0,
                3738.0,
                3047.0,
                3469.0,
                3354.0,
                3817.0,
                3618.0,
                3849.0,
                3956.0,
                4850.0,
                4596.0,
                5155.0,
                4312.0,
                5256.0,
                4944.0,
                5322.0,
                4884.0,
                5274.0,
                5313.0,
                5836.0,
                5773.0,
                6088.0,
                5583.0,
                5977.0,
                6359.0,
                6661.0,
                5616.0,
                6289.0,
                6454.0,
                7059.0,
                6490.0,
                7019.0,
                6869.0,
                6762.0,
                7197.0,
                6832.0,
                4870.0,
                3640.0,
                2455.0,
                2637.0,
                2434.0,
                2389.0,
                2605.0,
                2550.0,
                2241.0,
                2843.0,
                2367.0,
                2547.0,
                2630.0,
                2717.0,
                2512.0,
                2730.0,
                2837.0,
                3055.0,
                3146.0,
                3103.0,
                3210.0,
                3681.0,
                3698.0,
                3964.0,
                3711.0,
                3845.0,
                4038.0,
                4087.0,
                4048.0,
                3976.0,
                4533.0,
                4348.0,
                4990.0,
                5264.0,
                4599.0,
                4674.0,
                5268.0,
                5247.0,
                4733.0,
                5238.0,
                5284.0,
                5868.0,
                5617.0,
                5997.0,
                5869.0,
                5686.0,
                6252.0,
                5921.0,
                4450.0,
                2280.0,
                2352.0,
                2368.0,
                2428.0,
                2298.0,
                2499.0,
                2434.0,
                2209.0,
                2511.0,
                2301.0,
                2446.0,
                2638.0,
                2481.0,
                2447.0,
                2654.0,
                2737.0,
                2964.0,
                3105.0,
                3042.0,
                3098.0,
                3474.0,
                3434.0,
                3645.0,
                3554.0,
                3541.0,
                3843.0,
                3774.0,
                3905.0,
                3898.0,
                4322.0,
                4294.0,
                4673.0,
                5040.0,
                4423.0,
                4383.0,
                4897.0,
                4926.0,
                4495.0,
                4903.0,
                4926.0,
                5407.0,
                5266.0,
                5656.0,
                5487.0,
                5289.0,
                5918.0,
                5597.0,
                4027.0,
