{
    "AcquisitionMatrixPE": 88,
    "AcquisitionNumber": 1,
    "AcquisitionTime": "09:11:59.000000",
    "BodyPartExamined": "BRAIN",
    "CoilString": "48HAP",
    "ConversionSoftware": "dcm2niix",
    "ConversionSoftwareVersion": "v1.0.20190410  GCC6.3.0",
    "DeviceSerialNumber": "0000000319335MR2",
    "EchoTime": 0.03,
    "EffectiveEchoSpacing": 0.000564,
    "FlipAngle": 75,
    "ImageOrientationPatientDICOM": [
        1,
        0,
        0,
        0,
        0.990227,
        -0.139469
    ],
    "ImageType": [
        "ORIGINAL",
        "PRIMARY",
        "OTHER"
    ],
    "ImagingFrequency": 127.754,
    "InPlanePhaseEncodingDirectionDICOM": "COL",
    "InstitutionName": "Iowa_MRRF",
    "IntendedFor": [
        "func/sub-10040_task-ThalHi_run-005_bold.nii.gz",
        "func/sub-10040_task-ThalHi_run-006_bold.nii.gz",
        "func/sub-10040_task-ThalHi_run-007_bold.nii.gz",
        "func/sub-10040_task-ThalHi_run-008_bold.nii.gz"
    ],
    "MRAcquisitionType": "2D",
    "MagneticFieldStrength": 3,
    "Manufacturer": "GE",
    "ManufacturersModelName": "SIGNA_Premier",
    "Modality": "MR",
    "PatientPosition": "HFS",
    "PercentPhaseFOV": 100,
    "PhaseEncodingDirection": "j",
    "PhaseEncodingPolarityGE": "Flipped",
    "PixelBandwidth": 3906.25,
    "ProcedureStepDescription": "HWANG_NET",
    "ProtocolName": "EPI_FM_pepolar=0",
    "ReconMatrixPE": 128,
    "RepetitionTime": 1.8,
    "SAR": 0.0830356,
    "ScanOptions": "SAT_GEMS_EDR_GEMS_MP_GEMS_EPI_GEMS_HYPERBAND_GEMS_FS",
    "ScanningSequence": "EP_GR",
    "SequenceVariant": "SS",
    "SeriesDescription": "EPI_FM_pepolar=0",
    "SeriesNumber": 10,
    "SliceThickness": 2.5,
    "SliceTiming": [
        0,
        0.9,
        0.075,
        0.975,
        0.15,
        1.05,
        0.225,
        1.125,
        0.3,
        1.2,
        0.375,
        1.275,
        0.45,
        1.35,
        0.525,
        1.425,
        0.6,
        1.5,
        0.675,
        1.575,
        0.75,
        1.725,
        0.825,
        1.65,
        0,
        0.9,
        0.075,
        0.975,
        0.15,
        1.05,
        0.225,
        1.125,
        0.3,
        1.2,
        0.375,
        1.275,
        0.45,
        1.35,
        0.525,
        1.425,
        0.6,
        1.5,
        0.675,
        1.575,
        0.75,
        1.725,
        0.825,
        1.65
    ],
    "SoftwareVersions": "28_LX_MR_Software_release:RX28.0_R05_2035.a",
    "SpacingBetweenSlices": 2.5,
    "StationName": "Iowa3T",
    "TotalReadoutTime": 0.071628,
    "TriggerDelayTime": 10650,
    "dcmmeta_affine": [
        [
            -1.7187999486923218,
            0.0,
            0.0,
            109.92193603515625
        ],
        [
            0.0,
            1.7020013332366943,
            -0.34867095947265625,
            -112.08594512939453
        ],
        [
            0.0,
            0.239718496799469,
            2.4755630493164062,
            -53.09636306762695
        ],
        [
            0.0,
            0.0,
            0.0,
            1.0
        ]
    ],
    "dcmmeta_reorient_transform": [
        [
            0.0,
            -1.0,
            0.0,
            127.0
        ],
        [
            1.0,
            0.0,
            0.0,
            0.0
        ],
        [
            0.0,
            0.0,
            -1.0,
            47.0
        ],
        [
            0.0,
            0.0,
            0.0,
            1.0
        ]
    ],
    "dcmmeta_shape": [
        128,
        128,
        48,
        6
    ],
    "dcmmeta_slice_dim": 2,
    "dcmmeta_version": 0.6,
    "global": {
        "const": {
            "AcquisitionMatrix": [
                88,
                0,
                0,
                88
            ],
            "AcquisitionNumber": 1,
            "AcquisitionTime": "091159",
            "AnatomicRegionSequence": [
                {
                    "CodeMeaning": "Brain",
                    "CodeValue": "T-A0100",
                    "CodingSchemeDesignator": "SRT"
                }
            ],
            "AngioFlag": "N",
            "BeatRejectionFlag": "Y",
            "BitsAllocated": 16,
            "BitsStored": 16,
            "BodyPartExamined": "BRAIN",
            "CardiacNumberOfImages": 0,
            "Columns": 128,
            "ContentTime": "091159",
            "EchoNumbers": 1,
            "EchoTime": 30.0,
            "EchoTrainLength": 1,
            "FlipAngle": 75.0,
            "GroupLength_0X40_0X0": 98,
            "GroupLength_0X7FE0_0X0": 32780,
            "HeartRate": 0,
            "HighBit": 15,
            "ImageType": [
                "ORIGINAL",
                "PRIMARY",
                "OTHER"
            ],
            "ImagedNucleus": "1H",
            "ImagesInAcquisition": 288,
            "ImagingFrequency": 127.753647,
            "InPlanePhaseEncodingDirection": "COL",
            "MRAcquisitionType": "2D",
            "MagneticFieldStrength": 3.0,
            "Manufacturer": "GE MEDICAL SYSTEMS",
            "ManufacturerModelName": "SIGNA Premier",
            "Modality": "MR",
            "NumberOfAverages": 1.0,
            "NumberOfTemporalPositions": 6,
            "PercentPhaseFieldOfView": 100.0,
            "PercentSampling": 100.0,
            "PerformedLocation": "Iowa",
            "PerformedProcedureStepStartTime": "083203",
            "PhotometricInterpretation": "MONOCHROME2",
            "PixelBandwidth": 3906.25,
            "PixelRepresentation": 1,
            "PixelSpacing": [
                1.7188,
                1.7188
            ],
            "ProtocolName": "HWANG_NET_THALHI",
            "ReceiveCoilName": "48HAP",
            "ReconstructionDiameter": 220.0,
            "ReferencedPerformedProcedureStepSequence": [
                {
                    "ReferencedSOPClassUID": "1.2.840.10008.3.1.2.3.3",
                    "ReferencedSOPInstanceUID": "1.2.840.113619.6.475.19458795519114512628967492041596396189"
                }
            ],
            "RepetitionTime": 1800.0,
            "Rows": 128,
            "SAR": 0.0830356,
            "SamplesPerPixel": 1,
            "ScanOptions": [
                "SAT_GEMS",
                "EDR_GEMS",
                "MP_GEMS",
                "EPI_GEMS",
                "HYPERBAND_GEMS",
                "FS"
            ],
            "ScanningSequence": [
                "EP",
                "GR"
            ],
            "SequenceVariant": "SS",
            "SeriesDescription": "EPI FM pepolar=0",
            "SeriesNumber": 10,
            "SeriesTime": "091159",
            "SliceThickness": 2.5,
            "SmallestImagePixelValue": 0,
            "SoftwareVersions": [
                "28",
                "LX",
                "MR Software release:RX28.0_R05_2035.a"
            ],
            "SpacingBetweenSlices": 2.5,
            "SpecificCharacterSet": "ISO_IR 100",
            "StackID": "1",
            "StudyID": "1400",
            "StudyTime": "083210",
            "TriggerWindow": 0,
            "VariableFlipAngleFlag": "N"
        },
        "slices": {
            "InstanceNumber": [
                1,
                2,
                3,
                4,
                5,
                6,
                7,
                8,
                9,
                10,
                11,
                12,
                13,
                14,
                15,
                16,
                17,
                18,
                19,
                20,
                21,
                22,
                23,
                24,
                25,
                26,
                27,
                28,
                29,
                30,
                31,
                32,
                33,
                34,
                35,
                36,
                37,
                38,
                39,
                40,
                41,
                42,
                43,
                44,
                45,
                46,
                47,
                48,
                49,
                50,
                51,
                52,
                53,
                54,
                55,
                56,
                57,
                58,
                59,
                60,
                61,
                62,
                63,
                64,
                65,
                66,
                67,
                68,
                69,
                70,
                71,
                72,
                73,
                74,
                75,
                76,
                77,
                78,
                79,
                80,
                81,
                82,
                83,
                84,
                85,
                86,
                87,
                88,
                89,
                90,
                91,
                92,
                93,
                94,
                95,
                96,
                97,
                98,
                99,
                100,
                101,
                102,
                103,
                104,
                105,
                106,
                107,
                108,
                109,
                110,
                111,
                112,
                113,
                114,
                115,
                116,
                117,
                118,
                119,
                120,
                121,
                122,
                123,
                124,
                125,
                126,
                127,
                128,
                129,
                130,
                131,
                132,
                133,
                134,
                135,
                136,
                137,
                138,
                139,
                140,
                141,
                142,
                143,
                144,
                145,
                146,
                147,
                148,
                149,
                150,
                151,
                152,
                153,
                154,
                155,
                156,
                157,
                158,
                159,
                160,
                161,
                162,
                163,
                164,
                165,
                166,
                167,
                168,
                169,
                170,
                171,
                172,
                173,
                174,
                175,
                176,
                177,
                178,
                179,
                180,
                181,
                182,
                183,
                184,
                185,
                186,
                187,
                188,
                189,
                190,
                191,
                192,
                193,
                194,
                195,
                196,
                197,
                198,
                199,
                200,
                201,
                202,
                203,
                204,
                205,
                206,
                207,
                208,
                209,
                210,
                211,
                212,
                213,
                214,
                215,
                216,
                217,
                218,
                219,
                220,
                221,
                222,
                223,
                224,
                225,
                226,
                227,
                228,
                229,
                230,
                231,
                232,
                233,
                234,
                235,
                236,
                237,
                238,
                239,
                240,
                241,
                242,
                243,
                244,
                245,
                246,
                247,
                248,
                249,
                250,
                251,
                252,
                253,
                254,
                255,
                256,
                257,
                258,
                259,
                260,
                261,
                262,
                263,
                264,
                265,
                266,
                267,
                268,
                269,
                270,
                271,
                272,
                273,
                274,
                275,
                276,
                277,
                278,
                279,
                280,
                281,
                282,
                283,
                284,
                285,
                286,
                287,
                288
            ],
            "LargestImagePixelValue": [
                6593,
                5602,
                5603,
                4915,
                5253,
                4731,
                5455,
                4872,
                5491,
                5206,
                5230,
                4612,
                5370,
                4899,
                5446,
                5150,
                5933,
                5931,
                6102,
                6643,
                6843,
                6794,
                7167,
                7492,
                8118,
                7214,
                8121,
                7597,
                8057,
                7915,
                8161,
                7856,
                9192,
                8985,
                8922,
                9123,
                8867,
                9607,
                9150,
                8695,
                9601,
                9408,
                9840,
                9728,
                9989,
                10877,
                10900,
                6556,
                6355,
                5326,
                4113,
                4216,
                4103,
                4028,
                4425,
                4189,
                4334,
                4112,
                4296,
                4184,
                4559,
                4150,
                4641,
                4485,
                4952,
                5109,
                5195,
                5812,
                5817,
                5781,
                6226,
                5984,
                6539,
                6336,
                6750,
                6641,
                7011,
                7030,
                6917,
                6990,
                8032,
                7834,
                7786,
                8059,
                7708,
                8393,
                8017,
                7465,
                7997,
                8140,
                8370,
                8545,
                8414,
                9522,
                9406,
                5387,
                6585,
                5448,
                4532,
                4066,
                4021,
                4092,
                4132,
                4016,
                4070,
                4050,
                4018,
                3866,
                3954,
                4167,
                4351,
                4298,
                4673,
                4790,
                4892,
                5558,
                5465,
                5486,
                5778,
                6245,
                6362,
                5906,
                6493,
                6236,
                6602,
                6670,
                6351,
                6488,
                7593,
                7476,
                7436,
                7616,
                7332,
                8083,
                7511,
                7044,
                7526,
                7682,
                7935,
                8126,
                7846,
                8993,
                8886,
                5220,
                4329,
                4812,
                3815,
                4025,
                3970,
                3926,
                4047,
                3988,
                4033,
                4035,
                3985,
                3855,
                4026,
                3974,
                4395,
                4255,
                4573,
                4717,
                4834,
                5406,
                5376,
                5417,
                5542,
                6095,
                6096,
                5812,
                6216,
                6137,
                6359,
                6294,
                6181,
                6309,
                7406,
                7258,
                7139,
                7479,
                7098,
                7830,
                7404,
                6954,
                7311,
                7410,
                7684,
                7956,
                7667,
                8836,
                8473,
                4849,
                4626,
                4882,
                4132,
                4071,
                3972,
                3963,
                4142,
                4038,
                4005,
                4059,
                3938,
                3886,
                3865,
                3978,
                4339,
                4244,
                4581,
                4765,
                4764,
                5378,
                5360,
                5353,
                5491,
                6103,
                6145,
                5845,
                5951,
                6055,
                6414,
                6542,
                6364,
                6432,
                7303,
                7183,
                7209,
                7455,
                7162,
                7784,
                7234,
                6729,
                7204,
                7455,
                7579,
                7796,
                7705,
                8665,
                8464,
                4992,
                4045,
                4328,
                3633,
                4022,
                3953,
                3954,
                4160,
                4069,
                4004,
                4061,
                3895,
                3773,
                4220,
                4013,
                4331,
                4347,
                4578,
                4718,
                4865,
                5411,
                5405,
                5402,
                5553,
                6037,
                6011,
                5928,
                6136,
                6079,
                6399,
                6568,
                6368,
                6524,
                7311,
                7228,
                7176,
                7425,
                7088,
                7802,
                7385,
                6707,
                7204,
                7385,
                7608,
                7815,
                7569,
                8443,
                8511,
                4972
            ],
            "TriggerTime": [
                75.0,
                975.0,
                150.0,
                1050.0,
                225.0,
                1125.0,
                300.0,
                1200.0,
                375.0,
                1275.0,
                450.0,
                1350.0,
                525.0,
                1425.0,
                600.0,
                1500.0,
                675.0,
                1575.0,
                750.0,
                1650.0,
                825.0,
                1800.0,
                900.0,
                1725.0,
                75.0,
                975.0,
                150.0,
                1050.0,
                225.0,
                1125.0,
                300.0,
                1200.0,
                375.0,
                1275.0,
                450.0,
                1350.0,
                525.0,
                1425.0,
                600.0,
                1500.0,
                675.0,
                1575.0,
                750.0,
                1650.0,
                825.0,
                1800.0,
                900.0,
                1725.0,
                1875.0,
                2775.0,
                1950.0,
                2850.0,
                2025.0,
                2925.0,
                2100.0,
                3000.0,
                2175.0,
                3075.0,
                2250.0,
                3150.0,
                2325.0,
                3225.0,
                2400.0,
                3300.0,
                2475.0,
                3375.0,
                2550.0,
                3450.0,
                2625.0,
                3600.0,
                2700.0,
                3525.0,
                1875.0,
                2775.0,
                1950.0,
                2850.0,
                2025.0,
                2925.0,
                2100.0,
                3000.0,
                2175.0,
                3075.0,
                2250.0,
                3150.0,
                2325.0,
                3225.0,
                2400.0,
                3300.0,
                2475.0,
                3375.0,
                2550.0,
                3450.0,
                2625.0,
                3600.0,
                2700.0,
                3525.0,
                3675.0,
                4575.0,
                3750.0,
                4650.0,
                3825.0,
                4725.0,
                3900.0,
                4800.0,
                3975.0,
                4875.0,
                4050.0,
                4950.0,
                4125.0,
                5025.0,
                4200.0,
                5100.0,
                4275.0,
                5175.0,
                4350.0,
                5250.0,
                4425.0,
                5400.0,
                4500.0,
                5325.0,
                3675.0,
                4575.0,
                3750.0,
                4650.0,
                3825.0,
                4725.0,
                3900.0,
                4800.0,
                3975.0,
                4875.0,
                4050.0,
                4950.0,
                4125.0,
                5025.0,
                4200.0,
                5100.0,
                4275.0,
                5175.0,
                4350.0,
                5250.0,
                4425.0,
                5400.0,
                4500.0,
                5325.0,
                5475.0,
                6375.0,
                5550.0,
                6450.0,
                5625.0,
                6525.0,
                5700.0,
                6600.0,
                5775.0,
                6675.0,
                5850.0,
                6750.0,
                5925.0,
                6825.0,
                6000.0,
                6900.0,
                6075.0,
                6975.0,
                6150.0,
                7050.0,
                6225.0,
                7200.0,
                6300.0,
                7125.0,
                5475.0,
                6375.0,
                5550.0,
                6450.0,
                5625.0,
                6525.0,
                5700.0,
                6600.0,
                5775.0,
                6675.0,
                5850.0,
                6750.0,
                5925.0,
                6825.0,
                6000.0,
                6900.0,
                6075.0,
                6975.0,
                6150.0,
                7050.0,
                6225.0,
                7200.0,
                6300.0,
                7125.0,
                7275.0,
                8175.0,
                7350.0,
                8250.0,
                7425.0,
                8325.0,
                7500.0,
                8400.0,
                7575.0,
                8475.0,
                7650.0,
                8550.0,
                7725.0,
                8625.0,
                7800.0,
                8700.0,
                7875.0,
                8775.0,
                7950.0,
                8850.0,
                8025.0,
                9000.0,
                8100.0,
                8925.0,
                7275.0,
                8175.0,
                7350.0,
                8250.0,
                7425.0,
                8325.0,
                7500.0,
                8400.0,
                7575.0,
                8475.0,
                7650.0,
                8550.0,
                7725.0,
                8625.0,
                7800.0,
                8700.0,
                7875.0,
                8775.0,
                7950.0,
                8850.0,
                8025.0,
                9000.0,
                8100.0,
                8925.0,
                9075.0,
                9975.0,
                9150.0,
                10050.0,
                9225.0,
                10125.0,
                9300.0,
                10200.0,
                9375.0,
                10275.0,
                9450.0,
                10350.0,
                9525.0,
                10425.0,
                9600.0,
                10500.0,
                9675.0,
                10575.0,
                9750.0,
                10650.0,
                9825.0,
                10800.0,
                9900.0,
                10725.0,
                9075.0,
                9975.0,
                9150.0,
                10050.0,
                9225.0,
                10125.0,
                9300.0,
                10200.0,
                9375.0,
                10275.0,
                9450.0,
                10350.0,
                9525.0,
                10425.0,
                9600.0,
                10500.0,
                9675.0,
                10575.0,
                9750.0,
                10650.0,
                9825.0,
                10800.0,
                9900.0,
                10725.0
            ],
            "WindowCenter": [
                3955.0,
                3361.0,
                3361.0,
                2949.0,
                3151.0,
                2838.0,
                3273.0,
                2923.0,
                3294.0,
                3123.0,
                3138.0,
                2767.0,
                3222.0,
                2939.0,
                3267.0,
                3090.0,
                3559.0,
                3558.0,
                3661.0,
                3985.0,
                4105.0,
                4076.0,
                4300.0,
                4495.0,
                4870.0,
                4328.0,
                4872.0,
                4558.0,
                4834.0,
                4749.0,
                4896.0,
                4713.0,
                5515.0,
                5391.0,
                5353.0,
                5473.0,
                5320.0,
                5764.0,
                5490.0,
                5217.0,
                5760.0,
                5644.0,
                5904.0,
                5836.0,
                5993.0,
                6526.0,
                6540.0,
                3933.0,
                3813.0,
                3195.0,
                2467.0,
                2529.0,
                2461.0,
                2416.0,
                2655.0,
                2513.0,
                2600.0,
                2467.0,
                2577.0,
                2510.0,
                2735.0,
                2490.0,
                2784.0,
                2691.0,
                2971.0,
                3065.0,
                3117.0,
                3487.0,
                3490.0,
                3468.0,
                3735.0,
                3590.0,
                3923.0,
                3801.0,
                4050.0,
                3984.0,
                4206.0,
                4218.0,
                4150.0,
                4194.0,
                4819.0,
                4700.0,
                4671.0,
                4835.0,
                4624.0,
                5035.0,
                4810.0,
                4479.0,
                4798.0,
                4884.0,
                5022.0,
                5127.0,
                5048.0,
                5713.0,
                5643.0,
                3232.0,
                3951.0,
                3268.0,
                2719.0,
                2439.0,
                2412.0,
                2455.0,
                2479.0,
                2409.0,
                2442.0,
                2430.0,
                2410.0,
                2319.0,
                2372.0,
                2500.0,
                2610.0,
                2578.0,
                2803.0,
                2874.0,
                2935.0,
                3334.0,
                3279.0,
                3291.0,
                3466.0,
                3747.0,
                3817.0,
                3543.0,
                3895.0,
                3741.0,
                3961.0,
                4002.0,
                3810.0,
                3892.0,
                4555.0,
                4485.0,
                4461.0,
                4569.0,
                4399.0,
                4849.0,
                4506.0,
                4226.0,
                4515.0,
                4609.0,
                4761.0,
                4875.0,
                4707.0,
                5395.0,
                5331.0,
                3132.0,
