{
    "AcquisitionMatrixPE": 88,
    "AcquisitionNumber": 1,
    "AcquisitionTime": "13:12:55.000000",
    "BodyPartExamined": "BRAIN",
    "CoilString": "48HAP",
    "ConversionSoftware": "dcm2niix",
    "ConversionSoftwareVersion": "v1.0.20190410  GCC6.3.0",
    "DeviceSerialNumber": "0000000319335MR2",
    "EchoTime": 0.03,
    "EffectiveEchoSpacing": 0.000564,
    "FlipAngle": 75,
    "ImageOrientationPatientDICOM": [
        1,
        0,
        0,
        0,
        0.998576,
        -0.0533561
    ],
    "ImageType": [
        "ORIGINAL",
        "PRIMARY",
        "OTHER"
    ],
    "ImagingFrequency": 127.754,
    "InPlanePhaseEncodingDirectionDICOM": "COL",
    "InstitutionName": "Iowa_MRRF",
    "IntendedFor": [
        "func/sub-10066_task-ThalHi_run-005_bold.nii.gz",
        "func/sub-10066_task-ThalHi_run-006_bold.nii.gz",
        "func/sub-10066_task-ThalHi_run-007_bold.nii.gz",
        "func/sub-10066_task-ThalHi_run-008_bold.nii.gz"
    ],
    "MRAcquisitionType": "2D",
    "MagneticFieldStrength": 3,
    "Manufacturer": "GE",
    "ManufacturersModelName": "SIGNA_Premier",
    "Modality": "MR",
    "PatientPosition": "HFS",
    "PercentPhaseFOV": 100,
    "PhaseEncodingDirection": "j",
    "PhaseEncodingPolarityGE": "Flipped",
    "PixelBandwidth": 3906.25,
    "ProcedureStepDescription": "HWANG_NET",
    "ProtocolName": "EPI_FM_pepolar=0",
    "ReconMatrixPE": 128,
    "RepetitionTime": 1.8,
    "SAR": 0.0886721,
    "ScanOptions": "SAT_GEMS_EDR_GEMS_MP_GEMS_EPI_GEMS_HYPERBAND_GEMS_FS",
    "ScanningSequence": "EP_GR",
    "SequenceVariant": "SS",
    "SeriesDescription": "EPI_FM_pepolar=0",
    "SeriesNumber": 10,
    "SliceThickness": 2.5,
    "SliceTiming": [
        0,
        0.9,
        0.075,
        0.975,
        0.15,
        1.05,
        0.225,
        1.125,
        0.3,
        1.2,
        0.375,
        1.275,
        0.45,
        1.35,
        0.525,
        1.425,
        0.6,
        1.5,
        0.675,
        1.575,
        0.75,
        1.725,
        0.825,
        1.65,
        0,
        0.9,
        0.075,
        0.975,
        0.15,
        1.05,
        0.225,
        1.125,
        0.3,
        1.2,
        0.375,
        1.275,
        0.45,
        1.35,
        0.525,
        1.425,
        0.6,
        1.5,
        0.675,
        1.575,
        0.75,
        1.725,
        0.825,
        1.65
    ],
    "SoftwareVersions": "28_LX_MR_Software_release:RX28.0_R05_2035.a",
    "SpacingBetweenSlices": 2.5,
    "StationName": "Iowa3T",
    "TotalReadoutTime": 0.071628,
    "TriggerDelayTime": 10650,
    "dcmmeta_affine": [
        [
            -1.7187999486923218,
            0.0,
            0.0,
            111.48460388183594
        ],
        [
            0.0,
            1.7163516283035278,
            -0.13338470458984375,
            -108.68058013916016
        ],
        [
            0.0,
            0.0917084664106369,
            2.4964370727539062,
            -48.87605667114258
        ],
        [
            0.0,
            0.0,
            0.0,
            1.0
        ]
    ],
    "dcmmeta_reorient_transform": [
        [
            0.0,
            -1.0,
            0.0,
            127.0
        ],
        [
            1.0,
            0.0,
            0.0,
            0.0
        ],
        [
            0.0,
            0.0,
            -1.0,
            47.0
        ],
        [
            0.0,
            0.0,
            0.0,
            1.0
        ]
    ],
    "dcmmeta_shape": [
        128,
        128,
        48,
        6
    ],
    "dcmmeta_slice_dim": 2,
    "dcmmeta_version": 0.6,
    "global": {
        "const": {
            "AcquisitionMatrix": [
                88,
                0,
                0,
                88
            ],
            "AcquisitionNumber": 1,
            "AcquisitionTime": "131255",
            "AnatomicRegionSequence": [
                {
                    "CodeMeaning": "Brain",
                    "CodeValue": "T-A0100",
                    "CodingSchemeDesignator": "SRT"
                }
            ],
            "AngioFlag": "N",
            "BeatRejectionFlag": "Y",
            "BitsAllocated": 16,
            "BitsStored": 16,
            "BodyPartExamined": "BRAIN",
            "CardiacNumberOfImages": 0,
            "Columns": 128,
            "ContentTime": "131255",
            "EchoNumbers": 1,
            "EchoTime": 30.0,
            "EchoTrainLength": 1,
            "FlipAngle": 75.0,
            "GroupLength_0X40_0X0": 98,
            "GroupLength_0X7FE0_0X0": 32780,
            "HeartRate": 0,
            "HighBit": 15,
            "ImageType": [
                "ORIGINAL",
                "PRIMARY",
                "OTHER"
            ],
            "ImagedNucleus": "1H",
            "ImagesInAcquisition": 288,
            "ImagingFrequency": 127.7535,
            "InPlanePhaseEncodingDirection": "COL",
            "MRAcquisitionType": "2D",
            "MagneticFieldStrength": 3.0,
            "Manufacturer": "GE MEDICAL SYSTEMS",
            "ManufacturerModelName": "SIGNA Premier",
            "Modality": "MR",
            "NumberOfAverages": 1.0,
            "NumberOfTemporalPositions": 6,
            "PercentPhaseFieldOfView": 100.0,
            "PercentSampling": 100.0,
            "PerformedLocation": "Iowa",
            "PerformedProcedureStepStartTime": "123335",
            "PhotometricInterpretation": "MONOCHROME2",
            "PixelBandwidth": 3906.25,
            "PixelRepresentation": 1,
            "PixelSpacing": [
                1.7188,
                1.7188
            ],
            "ProtocolName": "HWANG_NET_THALHI",
            "ReceiveCoilName": "48HAP",
            "ReconstructionDiameter": 220.0,
            "ReferencedPerformedProcedureStepSequence": [
                {
                    "ReferencedSOPClassUID": "1.2.840.10008.3.1.2.3.3",
                    "ReferencedSOPInstanceUID": "1.2.840.113619.6.475.86404054559388630471343190519625294894"
                }
            ],
            "RepetitionTime": 1800.0,
            "Rows": 128,
            "SAR": 0.0886721,
            "SamplesPerPixel": 1,
            "ScanOptions": [
                "SAT_GEMS",
                "EDR_GEMS",
                "MP_GEMS",
                "EPI_GEMS",
                "HYPERBAND_GEMS",
                "FS"
            ],
            "ScanningSequence": [
                "EP",
                "GR"
            ],
            "SequenceVariant": "SS",
            "SeriesDescription": "EPI FM pepolar=0",
            "SeriesNumber": 10,
            "SeriesTime": "131255",
            "SliceThickness": 2.5,
            "SmallestImagePixelValue": 0,
            "SoftwareVersions": [
                "28",
                "LX",
                "MR Software release:RX28.0_R05_2035.a"
            ],
            "SpacingBetweenSlices": 2.5,
            "SpecificCharacterSet": "ISO_IR 100",
            "StackID": "1",
            "StudyID": "2042",
            "StudyTime": "123341",
            "TriggerWindow": 0,
            "VariableFlipAngleFlag": "N"
        },
        "slices": {
            "InstanceNumber": [
                1,
                2,
                3,
                4,
                5,
                6,
                7,
                8,
                9,
                10,
                11,
                12,
                13,
                14,
                15,
                16,
                17,
                18,
                19,
                20,
                21,
                22,
                23,
                24,
                25,
                26,
                27,
                28,
                29,
                30,
                31,
                32,
                33,
                34,
                35,
                36,
                37,
                38,
                39,
                40,
                41,
                42,
                43,
                44,
                45,
                46,
                47,
                48,
                49,
                50,
                51,
                52,
                53,
                54,
                55,
                56,
                57,
                58,
                59,
                60,
                61,
                62,
                63,
                64,
                65,
                66,
                67,
                68,
                69,
                70,
                71,
                72,
                73,
                74,
                75,
                76,
                77,
                78,
                79,
                80,
                81,
                82,
                83,
                84,
                85,
                86,
                87,
                88,
                89,
                90,
                91,
                92,
                93,
                94,
                95,
                96,
                97,
                98,
                99,
                100,
                101,
                102,
                103,
                104,
                105,
                106,
                107,
                108,
                109,
                110,
                111,
                112,
                113,
                114,
                115,
                116,
                117,
                118,
                119,
                120,
                121,
                122,
                123,
                124,
                125,
                126,
                127,
                128,
                129,
                130,
                131,
                132,
                133,
                134,
                135,
                136,
                137,
                138,
                139,
                140,
                141,
                142,
                143,
                144,
                145,
                146,
                147,
                148,
                149,
                150,
                151,
                152,
                153,
                154,
                155,
                156,
                157,
                158,
                159,
                160,
                161,
                162,
                163,
                164,
                165,
                166,
                167,
                168,
                169,
                170,
                171,
                172,
                173,
                174,
                175,
                176,
                177,
                178,
                179,
                180,
                181,
                182,
                183,
                184,
                185,
                186,
                187,
                188,
                189,
                190,
                191,
                192,
                193,
                194,
                195,
                196,
                197,
                198,
                199,
                200,
                201,
                202,
                203,
                204,
                205,
                206,
                207,
                208,
                209,
                210,
                211,
                212,
                213,
                214,
                215,
                216,
                217,
                218,
                219,
                220,
                221,
                222,
                223,
                224,
                225,
                226,
                227,
                228,
                229,
                230,
                231,
                232,
                233,
                234,
                235,
                236,
                237,
                238,
                239,
                240,
                241,
                242,
                243,
                244,
                245,
                246,
                247,
                248,
                249,
                250,
                251,
                252,
                253,
                254,
                255,
                256,
                257,
                258,
                259,
                260,
                261,
                262,
                263,
                264,
                265,
                266,
                267,
                268,
                269,
                270,
                271,
                272,
                273,
                274,
                275,
                276,
                277,
                278,
                279,
                280,
                281,
                282,
                283,
                284,
                285,
                286,
                287,
                288
            ],
            "LargestImagePixelValue": [
                4942,
                4722,
                5092,
                4595,
                5068,
                6594,
                5838,
                5275,
                5546,
                5458,
                5931,
                5635,
                5212,
                5148,
                5581,
                5451,
                5748,
                5728,
                6114,
                5953,
                6659,
                6530,
                7310,
                6423,
                7594,
                6627,
                7808,
                7600,
                9246,
                9100,
                9209,
                8592,
                9915,
                7894,
                8905,
                8667,
                9022,
                9206,
                8230,
                9694,
                8616,
                9054,
                9402,
                9032,
                9846,
                9534,
                10177,
                9796,
                4103,
                3584,
                4000,
                3906,
                3954,
                5331,
                5104,
                4035,
                4412,
                4639,
                4849,
                4608,
                4210,
                4448,
                4451,
                4683,
                4622,
                4939,
                5279,
                5073,
                5429,
                5186,
                5802,
                5545,
                6238,
                6139,
                6222,
                6636,
                7391,
                7746,
                7659,
                7545,
                8227,
                6599,
                7310,
                7552,
                7830,
                7991,
                7082,
                8156,
                7234,
                7782,
                8222,
                8069,
                8500,
                8266,
                8582,
                8525,
                3850,
                3652,
                3742,
                3784,
                4120,
                5285,
                4519,
                3909,
                4183,
                4403,
                4527,
                4408,
                3945,
                4434,
                4349,
                4467,
                4454,
                4628,
                4920,
                5029,
                5280,
                4968,
                5293,
                5384,
                5962,
                5898,
                5857,
                6294,
                6957,
                7329,
                7246,
                6872,
                7632,
                6442,
                6902,
                7142,
                7441,
                7406,
                6664,
                7689,
                6797,
                7339,
                7657,
                7637,
                7638,
                7791,
                8130,
                8200,
                4715,
                3574,
                4230,
                3761,
                4980,
                4686,
                5311,
                3908,
                4131,
                4365,
                4449,
                4344,
                3896,
                4400,
                4339,
                4662,
                4402,
                4587,
                4802,
                5010,
                5177,
                4862,
                5248,
                5363,
                5847,
                5806,
                5846,
                6106,
                6830,
                7145,
                7095,
                7083,
                7516,
                6314,
                6541,
                7002,
                7203,
                7399,
                6668,
                7545,
                6693,
                7197,
                7543,
                7504,
                7690,
                7602,
                7948,
                7993,
                4626,
                4355,
                3752,
                3824,
                4269,
                4868,
                5068,
                3846,
                4148,
                4321,
                4409,
                4305,
                3955,
                4453,
                4356,
                4654,
                4438,
                4659,
                4805,
                4912,
                5258,
                4925,
                5113,
                5334,
                5679,
                5835,
                5777,
                6078,
                6789,
                7076,
                7006,
                6964,
                7481,
                6331,
                6783,
                6934,
                7130,
                7333,
                6594,
                7448,
                6658,
                7181,
                7467,
                7431,
                7664,
                7567,
                7910,
                7828,
                4902,
                3949,
                3991,
                3868,
                4016,
                4855,
                4621,
                3882,
                4162,
                4272,
                4396,
                4316,
                3939,
                4504,
                4342,
                4659,
                4456,
                4635,
                4795,
                4980,
                5196,
                4801,
                5127,
                5349,
                5263,
                5640,
                5627,
                6048,
                6820,
                7161,
                7131,
                6880,
                7542,
                6283,
                6809,
                6980,
                7080,
                7256,
                6567,
                7500,
                6605,
                7198,
                7481,
                7355,
                7625,
                7325,
                7871,
                7883
            ],
            "TriggerTime": [
                75.0,
                975.0,
                150.0,
                1050.0,
                225.0,
                1125.0,
                300.0,
                1200.0,
                375.0,
                1275.0,
                450.0,
                1350.0,
                525.0,
                1425.0,
                600.0,
                1500.0,
                675.0,
                1575.0,
                750.0,
                1650.0,
                825.0,
                1800.0,
                900.0,
                1725.0,
                75.0,
                975.0,
                150.0,
                1050.0,
                225.0,
                1125.0,
                300.0,
                1200.0,
                375.0,
                1275.0,
                450.0,
                1350.0,
                525.0,
                1425.0,
                600.0,
                1500.0,
                675.0,
                1575.0,
                750.0,
                1650.0,
                825.0,
                1800.0,
                900.0,
                1725.0,
                1875.0,
                2775.0,
                1950.0,
                2850.0,
                2025.0,
                2925.0,
                2100.0,
                3000.0,
                2175.0,
                3075.0,
                2250.0,
                3150.0,
                2325.0,
                3225.0,
                2400.0,
                3300.0,
                2475.0,
                3375.0,
                2550.0,
                3450.0,
                2625.0,
                3600.0,
                2700.0,
                3525.0,
                1875.0,
                2775.0,
                1950.0,
                2850.0,
                2025.0,
                2925.0,
                2100.0,
                3000.0,
                2175.0,
                3075.0,
                2250.0,
                3150.0,
                2325.0,
                3225.0,
                2400.0,
                3300.0,
                2475.0,
                3375.0,
                2550.0,
                3450.0,
                2625.0,
                3600.0,
                2700.0,
                3525.0,
                3675.0,
                4575.0,
                3750.0,
                4650.0,
                3825.0,
                4725.0,
                3900.0,
                4800.0,
                3975.0,
                4875.0,
                4050.0,
                4950.0,
                4125.0,
                5025.0,
                4200.0,
                5100.0,
                4275.0,
                5175.0,
                4350.0,
                5250.0,
                4425.0,
                5400.0,
                4500.0,
                5325.0,
                3675.0,
                4575.0,
                3750.0,
                4650.0,
                3825.0,
                4725.0,
                3900.0,
                4800.0,
                3975.0,
                4875.0,
                4050.0,
                4950.0,
                4125.0,
                5025.0,
                4200.0,
                5100.0,
                4275.0,
                5175.0,
                4350.0,
                5250.0,
                4425.0,
                5400.0,
                4500.0,
                5325.0,
                5475.0,
                6375.0,
                5550.0,
                6450.0,
                5625.0,
                6525.0,
                5700.0,
                6600.0,
                5775.0,
                6675.0,
                5850.0,
                6750.0,
                5925.0,
                6825.0,
                6000.0,
                6900.0,
                6075.0,
                6975.0,
                6150.0,
                7050.0,
                6225.0,
                7200.0,
                6300.0,
                7125.0,
                5475.0,
                6375.0,
                5550.0,
                6450.0,
                5625.0,
                6525.0,
                5700.0,
                6600.0,
                5775.0,
                6675.0,
                5850.0,
                6750.0,
                5925.0,
                6825.0,
                6000.0,
                6900.0,
                6075.0,
                6975.0,
                6150.0,
                7050.0,
                6225.0,
                7200.0,
                6300.0,
                7125.0,
                7275.0,
                8175.0,
                7350.0,
                8250.0,
                7425.0,
                8325.0,
                7500.0,
                8400.0,
                7575.0,
                8475.0,
                7650.0,
                8550.0,
                7725.0,
                8625.0,
                7800.0,
                8700.0,
                7875.0,
                8775.0,
                7950.0,
                8850.0,
                8025.0,
                9000.0,
                8100.0,
                8925.0,
                7275.0,
                8175.0,
                7350.0,
                8250.0,
                7425.0,
                8325.0,
                7500.0,
                8400.0,
                7575.0,
                8475.0,
                7650.0,
                8550.0,
                7725.0,
                8625.0,
                7800.0,
                8700.0,
                7875.0,
                8775.0,
                7950.0,
                8850.0,
                8025.0,
                9000.0,
                8100.0,
                8925.0,
                9075.0,
                9975.0,
                9150.0,
                10050.0,
                9225.0,
                10125.0,
                9300.0,
                10200.0,
                9375.0,
                10275.0,
                9450.0,
                10350.0,
                9525.0,
                10425.0,
                9600.0,
                10500.0,
                9675.0,
                10575.0,
                9750.0,
                10650.0,
                9825.0,
                10800.0,
                9900.0,
                10725.0,
                9075.0,
                9975.0,
                9150.0,
                10050.0,
                9225.0,
                10125.0,
                9300.0,
                10200.0,
                9375.0,
                10275.0,
                9450.0,
                10350.0,
                9525.0,
                10425.0,
                9600.0,
                10500.0,
                9675.0,
                10575.0,
                9750.0,
                10650.0,
                9825.0,
                10800.0,
                9900.0,
                10725.0
            ],
            "WindowCenter": [
                2965.0,
                2833.0,
                3055.0,
                2757.0,
                3040.0,
                3956.0,
                3502.0,
                3165.0,
                3327.0,
                3274.0,
                3558.0,
                3381.0,
                3127.0,
                3088.0,
                3348.0,
                3270.0,
                3448.0,
                3436.0,
                3668.0,
                3571.0,
                3995.0,
                3918.0,
                4386.0,
                3853.0,
                4556.0,
                3976.0,
                4684.0,
                4560.0,
                5547.0,
                5460.0,
                5525.0,
                5155.0,
                5949.0,
                4736.0,
                5343.0,
                5200.0,
                5413.0,
                5523.0,
                4938.0,
                5816.0,
                5169.0,
                5432.0,
                5641.0,
                5419.0,
                5907.0,
                5720.0,
                6106.0,
                5877.0,
                2461.0,
                2150.0,
                2400.0,
                2343.0,
                2372.0,
                3198.0,
                3062.0,
                2421.0,
                2647.0,
                2783.0,
                2909.0,
                2764.0,
                2526.0,
                2668.0,
                2670.0,
                2809.0,
                2773.0,
                2963.0,
                3167.0,
                3043.0,
                3257.0,
                3111.0,
                3481.0,
                3327.0,
                3742.0,
                3683.0,
                3733.0,
                3981.0,
                4434.0,
                4647.0,
                4595.0,
                4527.0,
                4936.0,
                3959.0,
                4386.0,
                4531.0,
                4698.0,
                4794.0,
                4249.0,
                4893.0,
                4340.0,
                4669.0,
                4933.0,
                4841.0,
                5100.0,
                4959.0,
                5149.0,
                5115.0,
                2310.0,
                2191.0,
                2245.0,
                2270.0,
                2472.0,
                3171.0,
                2711.0,
                2345.0,
                2509.0,
                2641.0,
                2716.0,
                2644.0,
                2367.0,
                2660.0,
                2609.0,
                2680.0,
                2672.0,
                2776.0,
                2952.0,
                3017.0,
                3168.0,
                2980.0,
                3175.0,
                3230.0,
                3577.0,
                3538.0,
                3514.0,
                3776.0,
                4174.0,
                4397.0,
                4347.0,
                4123.0,
                4579.0,
                3865.0,
                4141.0,
                4285.0,
                4464.0,
                4443.0,
                3998.0,
                4613.0,
                4078.0,
                4403.0,
                4594.0,
                4582.0,
                4582.0,
                4674.0,
                4878.0,
                4920.0,
                2829.0,
