{
    "AcquisitionMatrixPE": 88,
    "AcquisitionNumber": 1,
    "AcquisitionTime": "12:42:15.000000",
    "BodyPartExamined": "BRAIN",
    "CoilString": "48HAP",
    "ConversionSoftware": "dcm2niix",
    "ConversionSoftwareVersion": "v1.0.20190410  GCC6.3.0",
    "DeviceSerialNumber": "0000000319335MR2",
    "EchoTime": 0.03,
    "EffectiveEchoSpacing": 0.000564,
    "FlipAngle": 75,
    "ImageOrientationPatientDICOM": [
        1,
        0,
        0,
        0,
        0.998576,
        -0.0533561
    ],
    "ImageType": [
        "ORIGINAL",
        "PRIMARY",
        "OTHER"
    ],
    "ImagingFrequency": 127.753,
    "InPlanePhaseEncodingDirectionDICOM": "COL",
    "InstitutionName": "Iowa_MRRF",
    "IntendedFor": [
        "func/sub-10066_task-ThalHi_run-001_bold.nii.gz",
        "func/sub-10066_task-ThalHi_run-002_bold.nii.gz",
        "func/sub-10066_task-ThalHi_run-003_bold.nii.gz",
        "func/sub-10066_task-ThalHi_run-004_bold.nii.gz"
    ],
    "MRAcquisitionType": "2D",
    "MagneticFieldStrength": 3,
    "Manufacturer": "GE",
    "ManufacturersModelName": "SIGNA_Premier",
    "Modality": "MR",
    "PatientPosition": "HFS",
    "PercentPhaseFOV": 100,
    "PhaseEncodingDirection": "j-",
    "PhaseEncodingPolarityGE": "Unflipped",
    "PixelBandwidth": 3906.25,
    "ProcedureStepDescription": "HWANG_NET",
    "ProtocolName": "EPI_FM_pepolar=1",
    "ReconMatrixPE": 128,
    "RepetitionTime": 1.8,
    "SAR": 0.0886721,
    "ScanOptions": "SAT_GEMS_EDR_GEMS_MP_GEMS_EPI_GEMS_HYPERBAND_GEMS_FS",
    "ScanningSequence": "EP_GR",
    "SequenceVariant": "SS",
    "SeriesDescription": "EPI_FM_pepolar=1",
    "SeriesNumber": 5,
    "SliceThickness": 2.5,
    "SliceTiming": [
        0,
        0.9,
        0.075,
        0.975,
        0.15,
        1.05,
        0.225,
        1.125,
        0.3,
        1.2,
        0.375,
        1.275,
        0.45,
        1.35,
        0.525,
        1.425,
        0.6,
        1.5,
        0.675,
        1.575,
        0.75,
        1.725,
        0.825,
        1.65,
        0,
        0.9,
        0.075,
        0.975,
        0.15,
        1.05,
        0.225,
        1.125,
        0.3,
        1.2,
        0.375,
        1.275,
        0.45,
        1.35,
        0.525,
        1.425,
        0.6,
        1.5,
        0.675,
        1.575,
        0.75,
        1.725,
        0.825,
        1.65
    ],
    "SoftwareVersions": "28_LX_MR_Software_release:RX28.0_R05_2035.a",
    "SpacingBetweenSlices": 2.5,
    "StationName": "Iowa3T",
    "TotalReadoutTime": 0.071628,
    "TriggerDelayTime": 10650,
    "dcmmeta_affine": [
        [
            -1.7187999486923218,
            0.0,
            0.0,
            111.48460388183594
        ],
        [
            0.0,
            1.7163516283035278,
            -0.13338470458984375,
            -108.68058013916016
        ],
        [
            0.0,
            0.0917084664106369,
            2.4964370727539062,
            -48.87605667114258
        ],
        [
            0.0,
            0.0,
            0.0,
            1.0
        ]
    ],
    "dcmmeta_reorient_transform": [
        [
            0.0,
            -1.0,
            0.0,
            127.0
        ],
        [
            1.0,
            0.0,
            0.0,
            0.0
        ],
        [
            0.0,
            0.0,
            -1.0,
            47.0
        ],
        [
            0.0,
            0.0,
            0.0,
            1.0
        ]
    ],
    "dcmmeta_shape": [
        128,
        128,
        48,
        6
    ],
    "dcmmeta_slice_dim": 2,
    "dcmmeta_version": 0.6,
    "global": {
        "const": {
            "AcquisitionMatrix": [
                88,
                0,
                0,
                88
            ],
            "AcquisitionNumber": 1,
            "AcquisitionTime": "124215",
            "AnatomicRegionSequence": [
                {
                    "CodeMeaning": "Brain",
                    "CodeValue": "T-A0100",
                    "CodingSchemeDesignator": "SRT"
                }
            ],
            "AngioFlag": "N",
            "BeatRejectionFlag": "Y",
            "BitsAllocated": 16,
            "BitsStored": 16,
            "BodyPartExamined": "BRAIN",
            "CardiacNumberOfImages": 0,
            "Columns": 128,
            "ContentTime": "124215",
            "EchoNumbers": 1,
            "EchoTime": 30.0,
            "EchoTrainLength": 1,
            "FlipAngle": 75.0,
            "GroupLength_0X40_0X0": 98,
            "GroupLength_0X7FE0_0X0": 32780,
            "HeartRate": 0,
            "HighBit": 15,
            "ImageType": [
                "ORIGINAL",
                "PRIMARY",
                "OTHER"
            ],
            "ImagedNucleus": "1H",
            "ImagesInAcquisition": 288,
            "ImagingFrequency": 127.753493,
            "InPlanePhaseEncodingDirection": "COL",
            "MRAcquisitionType": "2D",
            "MagneticFieldStrength": 3.0,
            "Manufacturer": "GE MEDICAL SYSTEMS",
            "ManufacturerModelName": "SIGNA Premier",
            "Modality": "MR",
            "NumberOfAverages": 1.0,
            "NumberOfTemporalPositions": 6,
            "PercentPhaseFieldOfView": 100.0,
            "PercentSampling": 100.0,
            "PerformedLocation": "Iowa",
            "PerformedProcedureStepStartTime": "123335",
            "PhotometricInterpretation": "MONOCHROME2",
            "PixelBandwidth": 3906.25,
            "PixelRepresentation": 1,
            "PixelSpacing": [
                1.7188,
                1.7188
            ],
            "ProtocolName": "HWANG_NET_THALHI",
            "ReceiveCoilName": "48HAP",
            "ReconstructionDiameter": 220.0,
            "ReferencedPerformedProcedureStepSequence": [
                {
                    "ReferencedSOPClassUID": "1.2.840.10008.3.1.2.3.3",
                    "ReferencedSOPInstanceUID": "1.2.840.113619.6.475.86404054559388630471343190519625294894"
                }
            ],
            "RepetitionTime": 1800.0,
            "Rows": 128,
            "SAR": 0.0886721,
            "SamplesPerPixel": 1,
            "ScanOptions": [
                "SAT_GEMS",
                "EDR_GEMS",
                "MP_GEMS",
                "EPI_GEMS",
                "HYPERBAND_GEMS",
                "FS"
            ],
            "ScanningSequence": [
                "EP",
                "GR"
            ],
            "SequenceVariant": "SS",
            "SeriesDescription": "EPI FM pepolar=1",
            "SeriesNumber": 5,
            "SeriesTime": "124215",
            "SliceThickness": 2.5,
            "SmallestImagePixelValue": 0,
            "SoftwareVersions": [
                "28",
                "LX",
                "MR Software release:RX28.0_R05_2035.a"
            ],
            "SpacingBetweenSlices": 2.5,
            "SpecificCharacterSet": "ISO_IR 100",
            "StackID": "1",
            "StudyID": "2042",
            "StudyTime": "123341",
            "TriggerWindow": 0,
            "VariableFlipAngleFlag": "N"
        },
        "slices": {
            "InstanceNumber": [
                1,
                2,
                3,
                4,
                5,
                6,
                7,
                8,
                9,
                10,
                11,
                12,
                13,
                14,
                15,
                16,
                17,
                18,
                19,
                20,
                21,
                22,
                23,
                24,
                25,
                26,
                27,
                28,
                29,
                30,
                31,
                32,
                33,
                34,
                35,
                36,
                37,
                38,
                39,
                40,
                41,
                42,
                43,
                44,
                45,
                46,
                47,
                48,
                49,
                50,
                51,
                52,
                53,
                54,
                55,
                56,
                57,
                58,
                59,
                60,
                61,
                62,
                63,
                64,
                65,
                66,
                67,
                68,
                69,
                70,
                71,
                72,
                73,
                74,
                75,
                76,
                77,
                78,
                79,
                80,
                81,
                82,
                83,
                84,
                85,
                86,
                87,
                88,
                89,
                90,
                91,
                92,
                93,
                94,
                95,
                96,
                97,
                98,
                99,
                100,
                101,
                102,
                103,
                104,
                105,
                106,
                107,
                108,
                109,
                110,
                111,
                112,
                113,
                114,
                115,
                116,
                117,
                118,
                119,
                120,
                121,
                122,
                123,
                124,
                125,
                126,
                127,
                128,
                129,
                130,
                131,
                132,
                133,
                134,
                135,
                136,
                137,
                138,
                139,
                140,
                141,
                142,
                143,
                144,
                145,
                146,
                147,
                148,
                149,
                150,
                151,
                152,
                153,
                154,
                155,
                156,
                157,
                158,
                159,
                160,
                161,
                162,
                163,
                164,
                165,
                166,
                167,
                168,
                169,
                170,
                171,
                172,
                173,
                174,
                175,
                176,
                177,
                178,
                179,
                180,
                181,
                182,
                183,
                184,
                185,
                186,
                187,
                188,
                189,
                190,
                191,
                192,
                193,
                194,
                195,
                196,
                197,
                198,
                199,
                200,
                201,
                202,
                203,
                204,
                205,
                206,
                207,
                208,
                209,
                210,
                211,
                212,
                213,
                214,
                215,
                216,
                217,
                218,
                219,
                220,
                221,
                222,
                223,
                224,
                225,
                226,
                227,
                228,
                229,
                230,
                231,
                232,
                233,
                234,
                235,
                236,
                237,
                238,
                239,
                240,
                241,
                242,
                243,
                244,
                245,
                246,
                247,
                248,
                249,
                250,
                251,
                252,
                253,
                254,
                255,
                256,
                257,
                258,
                259,
                260,
                261,
                262,
                263,
                264,
                265,
                266,
                267,
                268,
                269,
                270,
                271,
                272,
                273,
                274,
                275,
                276,
                277,
                278,
                279,
                280,
                281,
                282,
                283,
                284,
                285,
                286,
                287,
                288
            ],
            "LargestImagePixelValue": [
                5384,
                4136,
                4823,
                4367,
                5345,
                4645,
                5145,
                5061,
                5450,
                4930,
                5265,
                4984,
                5703,
                4793,
                5407,
                5431,
                6044,
                5642,
                6043,
                5887,
                6702,
                6923,
                7412,
                6699,
                7481,
                7074,
                7984,
                7327,
                8021,
                7254,
                7621,
                8610,
                7869,
                7461,
                8239,
                7527,
                8794,
                9642,
                10259,
                8517,
                9967,
                10012,
                11746,
                11869,
                10524,
                10375,
                10352,
                11758,
                5390,
                3719,
                3602,
                3877,
                4154,
                3908,
                3936,
                3746,
                4063,
                4152,
                4331,
                4145,
                4567,
                4043,
                4524,
                4827,
                4787,
                4867,
                4897,
                5031,
                5438,
                5243,
                5580,
                5706,
                5846,
                5894,
                6213,
                6262,
                6247,
                6024,
                6025,
                7329,
                6589,
                6332,
                6643,
                6244,
                6931,
                7825,
                8247,
                6957,
                7989,
                8382,
                9570,
                9900,
                8762,
                8622,
                8756,
                9915,
                3815,
                3610,
                3442,
                3725,
                3960,
                3846,
                3896,
                3712,
                3892,
                4081,
                4131,
                4086,
                4343,
                4041,
                4277,
                4631,
                4636,
                4618,
                4773,
                4868,
                5297,
                5258,
                5156,
                5513,
                5508,
                5744,
                5854,
                5920,
                5969,
                5548,
                5907,
                6787,
                6116,
                6114,
                6227,
                5924,
                6447,
                7268,
                7614,
                6653,
                7341,
                7792,
                8886,
                9101,
                7929,
                8097,
                8011,
                9393,
                4413,
                3432,
                3433,
                3704,
                4012,
                3824,
                3824,
                3689,
                3903,
                4037,
                4114,
                4056,
                4259,
                3986,
                4192,
                4621,
                4497,
                4601,
                4747,
                4923,
                5271,
                5242,
                5072,
                5522,
                5481,
                5707,
                5793,
                5689,
                5954,
                5745,
                5800,
                6580,
                6030,
                6031,
                6127,
                5888,
                6248,
                7213,
                7486,
                6534,
                7029,
                7591,
                8599,
                8757,
                7808,
                7831,
                7866,
                9148,
                4338,
                3389,
                3477,
                3692,
                3947,
                3855,
                3815,
                3586,
                3855,
                4436,
                4089,
                4044,
                4235,
                3982,
                4245,
                4500,
                4452,
                4504,
                4720,
                4926,
                5290,
                5313,
                5059,
                5418,
                5469,
                5654,
                5804,
                5624,
                5897,
                5698,
                5668,
                6665,
                5919,
                5975,
                6109,
                5887,
                6269,
                7121,
                7404,
                6471,
                6997,
                7495,
                8565,
                8830,
                7734,
                7756,
                7777,
                9020,
                4559,
                3430,
                3478,
                3721,
                4005,
                3855,
                3827,
                3616,
                3852,
                4019,
                4045,
                3934,
                4196,
                4003,
                4149,
                4572,
                4469,
                4480,
                4735,
                4904,
                5206,
                5233,
                4997,
                5359,
                5393,
                5544,
                5804,
                5364,
                5845,
                5650,
                5659,
                6578,
                5523,
                5913,
                5973,
                5785,
                6185,
                7092,
                7344,
                6453,
                6971,
                7538,
                8538,
                8844,
                7693,
                7534,
                7765,
                8922
            ],
            "TriggerTime": [
                75.0,
                975.0,
                150.0,
                1050.0,
                225.0,
                1125.0,
                300.0,
                1200.0,
                375.0,
                1275.0,
                450.0,
                1350.0,
                525.0,
                1425.0,
                600.0,
                1500.0,
                675.0,
                1575.0,
                750.0,
                1650.0,
                825.0,
                1800.0,
                900.0,
                1725.0,
                75.0,
                975.0,
                150.0,
                1050.0,
                225.0,
                1125.0,
                300.0,
                1200.0,
                375.0,
                1275.0,
                450.0,
                1350.0,
                525.0,
                1425.0,
                600.0,
                1500.0,
                675.0,
                1575.0,
                750.0,
                1650.0,
                825.0,
                1800.0,
                900.0,
                1725.0,
                1875.0,
                2775.0,
                1950.0,
                2850.0,
                2025.0,
                2925.0,
                2100.0,
                3000.0,
                2175.0,
                3075.0,
                2250.0,
                3150.0,
                2325.0,
                3225.0,
                2400.0,
                3300.0,
                2475.0,
                3375.0,
                2550.0,
                3450.0,
                2625.0,
                3600.0,
                2700.0,
                3525.0,
                1875.0,
                2775.0,
                1950.0,
                2850.0,
                2025.0,
                2925.0,
                2100.0,
                3000.0,
                2175.0,
                3075.0,
                2250.0,
                3150.0,
                2325.0,
                3225.0,
                2400.0,
                3300.0,
                2475.0,
                3375.0,
                2550.0,
                3450.0,
                2625.0,
                3600.0,
                2700.0,
                3525.0,
                3675.0,
                4575.0,
                3750.0,
                4650.0,
                3825.0,
                4725.0,
                3900.0,
                4800.0,
                3975.0,
                4875.0,
                4050.0,
                4950.0,
                4125.0,
                5025.0,
                4200.0,
                5100.0,
                4275.0,
                5175.0,
                4350.0,
                5250.0,
                4425.0,
                5400.0,
                4500.0,
                5325.0,
                3675.0,
                4575.0,
                3750.0,
                4650.0,
                3825.0,
                4725.0,
                3900.0,
                4800.0,
                3975.0,
                4875.0,
                4050.0,
                4950.0,
                4125.0,
                5025.0,
                4200.0,
                5100.0,
                4275.0,
                5175.0,
                4350.0,
                5250.0,
                4425.0,
                5400.0,
                4500.0,
                5325.0,
                5475.0,
                6375.0,
                5550.0,
                6450.0,
                5625.0,
                6525.0,
                5700.0,
                6600.0,
                5775.0,
                6675.0,
                5850.0,
                6750.0,
                5925.0,
                6825.0,
                6000.0,
                6900.0,
                6075.0,
                6975.0,
                6150.0,
                7050.0,
                6225.0,
                7200.0,
                6300.0,
                7125.0,
                5475.0,
                6375.0,
                5550.0,
                6450.0,
                5625.0,
                6525.0,
                5700.0,
                6600.0,
                5775.0,
                6675.0,
                5850.0,
                6750.0,
                5925.0,
                6825.0,
                6000.0,
                6900.0,
                6075.0,
                6975.0,
                6150.0,
                7050.0,
                6225.0,
                7200.0,
                6300.0,
                7125.0,
                7275.0,
                8175.0,
                7350.0,
                8250.0,
                7425.0,
                8325.0,
                7500.0,
                8400.0,
                7575.0,
                8475.0,
                7650.0,
                8550.0,
                7725.0,
                8625.0,
                7800.0,
                8700.0,
                7875.0,
                8775.0,
                7950.0,
                8850.0,
                8025.0,
                9000.0,
                8100.0,
                8925.0,
                7275.0,
                8175.0,
                7350.0,
                8250.0,
                7425.0,
                8325.0,
                7500.0,
                8400.0,
                7575.0,
                8475.0,
                7650.0,
                8550.0,
                7725.0,
                8625.0,
                7800.0,
                8700.0,
                7875.0,
                8775.0,
                7950.0,
                8850.0,
                8025.0,
                9000.0,
                8100.0,
                8925.0,
                9075.0,
                9975.0,
                9150.0,
                10050.0,
                9225.0,
                10125.0,
                9300.0,
                10200.0,
                9375.0,
                10275.0,
                9450.0,
                10350.0,
                9525.0,
                10425.0,
                9600.0,
                10500.0,
                9675.0,
                10575.0,
                9750.0,
                10650.0,
                9825.0,
                10800.0,
                9900.0,
                10725.0,
                9075.0,
                9975.0,
                9150.0,
                10050.0,
                9225.0,
                10125.0,
                9300.0,
                10200.0,
                9375.0,
                10275.0,
                9450.0,
                10350.0,
                9525.0,
                10425.0,
                9600.0,
                10500.0,
                9675.0,
                10575.0,
                9750.0,
                10650.0,
                9825.0,
                10800.0,
                9900.0,
                10725.0
            ],
            "WindowCenter": [
                3230.0,
                2481.0,
                2893.0,
                2620.0,
                3207.0,
                2787.0,
                3087.0,
                3036.0,
                3270.0,
                2958.0,
                3159.0,
                2990.0,
                3421.0,
                2875.0,
                3244.0,
                3258.0,
                3626.0,
                3385.0,
                3625.0,
                3532.0,
                4021.0,
                4153.0,
                4447.0,
                4019.0,
                4488.0,
                4244.0,
                4790.0,
                4396.0,
                4812.0,
                4352.0,
                4572.0,
                5166.0,
                4721.0,
                4476.0,
                4943.0,
                4516.0,
                5276.0,
                5785.0,
                6155.0,
                5110.0,
                5980.0,
                6007.0,
                7047.0,
                7121.0,
                6314.0,
                6225.0,
                6211.0,
                7054.0,
                3234.0,
                2231.0,
                2161.0,
                2326.0,
                2492.0,
                2344.0,
                2361.0,
                2247.0,
                2437.0,
                2491.0,
                2598.0,
                2487.0,
                2740.0,
                2425.0,
                2714.0,
                2896.0,
                2872.0,
                2920.0,
                2938.0,
                3018.0,
                3262.0,
                3145.0,
                3348.0,
                3423.0,
                3507.0,
                3536.0,
                3727.0,
                3757.0,
                3748.0,
                3614.0,
                3615.0,
                4397.0,
                3953.0,
                3799.0,
                3985.0,
                3746.0,
                4158.0,
                4695.0,
                4948.0,
                4174.0,
                4793.0,
                5029.0,
                5742.0,
                5940.0,
                5257.0,
                5173.0,
                5253.0,
                5949.0,
                2289.0,
                2166.0,
                2065.0,
                2235.0,
                2376.0,
                2307.0,
                2337.0,
                2227.0,
                2335.0,
                2448.0,
                2478.0,
                2451.0,
                2605.0,
                2424.0,
                2566.0,
                2778.0,
                2781.0,
                2770.0,
                2863.0,
                2920.0,
                3178.0,
                3154.0,
                3093.0,
                3307.0,
                3304.0,
                3446.0,
                3512.0,
                3552.0,
                3581.0,
                3328.0,
                3544.0,
                4072.0,
                3669.0,
                3668.0,
                3736.0,
                3554.0,
                3868.0,
                4360.0,
                4568.0,
                3991.0,
                4404.0,
                4675.0,
                5331.0,
                5460.0,
                4757.0,
                4858.0,
                4806.0,
                5635.0,
