{
    "AcquisitionMatrixPE": 88,
    "AcquisitionNumber": 1,
    "AcquisitionTime": "10:42:9.000000",
    "BodyPartExamined": "BRAIN",
    "CoilString": "48HAP",
    "ConversionSoftware": "dcm2niix",
    "ConversionSoftwareVersion": "v1.0.20190410  GCC6.3.0",
    "DeviceSerialNumber": "0000000319335MR2",
    "EchoTime": 0.03,
    "EffectiveEchoSpacing": 0.000564,
    "FlipAngle": 75,
    "ImageOrientationPatientDICOM": [
        1,
        0,
        0,
        0,
        1,
        0
    ],
    "ImageType": [
        "ORIGINAL",
        "PRIMARY",
        "OTHER"
    ],
    "ImagingFrequency": 127.754,
    "InPlanePhaseEncodingDirectionDICOM": "COL",
    "InstitutionName": "Iowa_MRRF",
    "IntendedFor": [
        "func/sub-10074_task-ThalHi_run-001_bold.nii.gz",
        "func/sub-10074_task-ThalHi_run-002_bold.nii.gz",
        "func/sub-10074_task-ThalHi_run-003_bold.nii.gz",
        "func/sub-10074_task-ThalHi_run-004_bold.nii.gz"
    ],
    "MRAcquisitionType": "2D",
    "MagneticFieldStrength": 3,
    "Manufacturer": "GE",
    "ManufacturersModelName": "SIGNA_Premier",
    "Modality": "MR",
    "PatientPosition": "HFS",
    "PercentPhaseFOV": 100,
    "PhaseEncodingDirection": "j",
    "PhaseEncodingPolarityGE": "Flipped",
    "PixelBandwidth": 3906.25,
    "ProcedureStepDescription": "HWANG_NET",
    "ProtocolName": "EPI_FM_pepolar=0",
    "ReconMatrixPE": 128,
    "RepetitionTime": 1.8,
    "SAR": 0.0716062,
    "ScanOptions": "SAT_GEMS_EDR_GEMS_MP_GEMS_EPI_GEMS_HYPERBAND_GEMS_FS",
    "ScanningSequence": "EP_GR",
    "SequenceVariant": "SS",
    "SeriesDescription": "EPI_FM_pepolar=0",
    "SeriesNumber": 4,
    "SliceThickness": 2.5,
    "SliceTiming": [
        0,
        0.9,
        0.075,
        0.975,
        0.15,
        1.05,
        0.225,
        1.125,
        0.3,
        1.2,
        0.375,
        1.275,
        0.45,
        1.35,
        0.525,
        1.425,
        0.6,
        1.5,
        0.675,
        1.575,
        0.75,
        1.725,
        0.825,
        1.65,
        0,
        0.9,
        0.075,
        0.975,
        0.15,
        1.05,
        0.225,
        1.125,
        0.3,
        1.2,
        0.375,
        1.275,
        0.45,
        1.35,
        0.525,
        1.425,
        0.6,
        1.5,
        0.675,
        1.575,
        0.75,
        1.725,
        0.825,
        1.65
    ],
    "SoftwareVersions": "28_LX_MR_Software_release:RX28.0_R05_2035.a",
    "SpacingBetweenSlices": 2.5,
    "StationName": "Iowa3T",
    "TotalReadoutTime": 0.071628,
    "TriggerDelayTime": 10650,
    "dcmmeta_affine": [
        [
            -1.7187999486923218,
            0.0,
            0.0,
            108.35926818847656
        ],
        [
            0.0,
            1.7187999486923218,
            0.0,
            -128.3784637451172
        ],
        [
            0.0,
            0.0,
            2.5,
            -32.97880554199219
        ],
        [
            0.0,
            0.0,
            0.0,
            1.0
        ]
    ],
    "dcmmeta_reorient_transform": [
        [
            0.0,
            -1.0,
            0.0,
            127.0
        ],
        [
            1.0,
            0.0,
            0.0,
            0.0
        ],
        [
            0.0,
            0.0,
            -1.0,
            47.0
        ],
        [
            0.0,
            0.0,
            0.0,
            1.0
        ]
    ],
    "dcmmeta_shape": [
        128,
        128,
        48,
        6
    ],
    "dcmmeta_slice_dim": 2,
    "dcmmeta_version": 0.6,
    "global": {
        "const": {
            "AcquisitionMatrix": [
                88,
                0,
                0,
                88
            ],
            "AcquisitionNumber": 1,
            "AcquisitionTime": "104209",
            "AnatomicRegionSequence": [
                {
                    "CodeMeaning": "Brain",
                    "CodeValue": "T-A0100",
                    "CodingSchemeDesignator": "SRT"
                }
            ],
            "AngioFlag": "N",
            "BeatRejectionFlag": "Y",
            "BitsAllocated": 16,
            "BitsStored": 16,
            "BodyPartExamined": "BRAIN",
            "CardiacNumberOfImages": 0,
            "Columns": 128,
            "ContentTime": "104209",
            "EchoNumbers": 1,
            "EchoTime": 30.0,
            "EchoTrainLength": 1,
            "FlipAngle": 75.0,
            "GroupLength_0X40_0X0": 98,
            "GroupLength_0X7FE0_0X0": 32780,
            "HeartRate": 0,
            "HighBit": 15,
            "ImageOrientationPatient": [
                1.0,
                -0.0,
                0.0,
                -0.0,
                1.0,
                0.0
            ],
            "ImageType": [
                "ORIGINAL",
                "PRIMARY",
                "OTHER"
            ],
            "ImagedNucleus": "1H",
            "ImagesInAcquisition": 288,
            "ImagingFrequency": 127.754002,
            "InPlanePhaseEncodingDirection": "COL",
            "MRAcquisitionType": "2D",
            "MagneticFieldStrength": 3.0,
            "Manufacturer": "GE MEDICAL SYSTEMS",
            "ManufacturerModelName": "SIGNA Premier",
            "Modality": "MR",
            "NumberOfAverages": 1.0,
            "NumberOfTemporalPositions": 6,
            "PercentPhaseFieldOfView": 100.0,
            "PercentSampling": 100.0,
            "PerformedLocation": "Iowa",
            "PerformedProcedureStepStartTime": "103333",
            "PhotometricInterpretation": "MONOCHROME2",
            "PixelBandwidth": 3906.25,
            "PixelRepresentation": 1,
            "PixelSpacing": [
                1.7188,
                1.7188
            ],
            "ProtocolName": "HWANG_NET_THALHI",
            "ReceiveCoilName": "48HAP",
            "ReconstructionDiameter": 220.0,
            "ReferencedPerformedProcedureStepSequence": [
                {
                    "ReferencedSOPClassUID": "1.2.840.10008.3.1.2.3.3",
                    "ReferencedSOPInstanceUID": "1.2.840.113619.6.475.32324644294728547030197218253279090067"
                }
            ],
            "RepetitionTime": 1800.0,
            "Rows": 128,
            "SAR": 0.0716062,
            "SamplesPerPixel": 1,
            "ScanOptions": [
                "SAT_GEMS",
                "EDR_GEMS",
                "MP_GEMS",
                "EPI_GEMS",
                "HYPERBAND_GEMS",
                "FS"
            ],
            "ScanningSequence": [
                "EP",
                "GR"
            ],
            "SequenceVariant": "SS",
            "SeriesDescription": "EPI FM pepolar=0",
            "SeriesNumber": 4,
            "SeriesTime": "104209",
            "SliceThickness": 2.5,
            "SmallestImagePixelValue": 0,
            "SoftwareVersions": [
                "28",
                "LX",
                "MR Software release:RX28.0_R05_2035.a"
            ],
            "SpacingBetweenSlices": 2.5,
            "SpecificCharacterSet": "ISO_IR 100",
            "StackID": "1",
            "StudyID": "2086",
            "StudyTime": "103342",
            "TriggerWindow": 0,
            "VariableFlipAngleFlag": "N"
        },
        "slices": {
            "InstanceNumber": [
                1,
                2,
                3,
                4,
                5,
                6,
                7,
                8,
                9,
                10,
                11,
                12,
                13,
                14,
                15,
                16,
                17,
                18,
                19,
                20,
                21,
                22,
                23,
                24,
                25,
                26,
                27,
                28,
                29,
                30,
                31,
                32,
                33,
                34,
                35,
                36,
                37,
                38,
                39,
                40,
                41,
                42,
                43,
                44,
                45,
                46,
                47,
                48,
                49,
                50,
                51,
                52,
                53,
                54,
                55,
                56,
                57,
                58,
                59,
                60,
                61,
                62,
                63,
                64,
                65,
                66,
                67,
                68,
                69,
                70,
                71,
                72,
                73,
                74,
                75,
                76,
                77,
                78,
                79,
                80,
                81,
                82,
                83,
                84,
                85,
                86,
                87,
                88,
                89,
                90,
                91,
                92,
                93,
                94,
                95,
                96,
                97,
                98,
                99,
                100,
                101,
                102,
                103,
                104,
                105,
                106,
                107,
                108,
                109,
                110,
                111,
                112,
                113,
                114,
                115,
                116,
                117,
                118,
                119,
                120,
                121,
                122,
                123,
                124,
                125,
                126,
                127,
                128,
                129,
                130,
                131,
                132,
                133,
                134,
                135,
                136,
                137,
                138,
                139,
                140,
                141,
                142,
                143,
                144,
                145,
                146,
                147,
                148,
                149,
                150,
                151,
                152,
                153,
                154,
                155,
                156,
                157,
                158,
                159,
                160,
                161,
                162,
                163,
                164,
                165,
                166,
                167,
                168,
                169,
                170,
                171,
                172,
                173,
                174,
                175,
                176,
                177,
                178,
                179,
                180,
                181,
                182,
                183,
                184,
                185,
                186,
                187,
                188,
                189,
                190,
                191,
                192,
                193,
                194,
                195,
                196,
                197,
                198,
                199,
                200,
                201,
                202,
                203,
                204,
                205,
                206,
                207,
                208,
                209,
                210,
                211,
                212,
                213,
                214,
                215,
                216,
                217,
                218,
                219,
                220,
                221,
                222,
                223,
                224,
                225,
                226,
                227,
                228,
                229,
                230,
                231,
                232,
                233,
                234,
                235,
                236,
                237,
                238,
                239,
                240,
                241,
                242,
                243,
                244,
                245,
                246,
                247,
                248,
                249,
                250,
                251,
                252,
                253,
                254,
                255,
                256,
                257,
                258,
                259,
                260,
                261,
                262,
                263,
                264,
                265,
                266,
                267,
                268,
                269,
                270,
                271,
                272,
                273,
                274,
                275,
                276,
                277,
                278,
                279,
                280,
                281,
                282,
                283,
                284,
                285,
                286,
                287,
                288
            ],
            "LargestImagePixelValue": [
                6022,
                5252,
                5944,
                5941,
                6278,
                7173,
                7485,
                7122,
                6883,
                6809,
                9076,
                6369,
                7036,
                6738,
                8339,
                7898,
                9080,
                8057,
                8021,
                8052,
                8161,
                7625,
                7864,
                7965,
                10083,
                9188,
                11920,
                10962,
                12509,
                9445,
                9735,
                9785,
                9341,
                9951,
                9383,
                9986,
                11155,
                10673,
                10729,
                9463,
                9968,
                9666,
                9909,
                10254,
                10815,
                10118,
                11255,
                6975,
                4928,
                4092,
                4576,
                4589,
                4999,
                5631,
                5809,
                5888,
                5300,
                5783,
                7389,
                5662,
                5548,
                5788,
                6685,
                6421,
                6880,
                6258,
                6021,
                6500,
                6357,
                6636,
                6435,
                6538,
                7692,
                7400,
                9401,
                8702,
                9773,
                7619,
                8081,
                7832,
                7259,
                7926,
                7413,
                7928,
                8826,
                8619,
                8296,
                7722,
                8206,
                7913,
                7849,
                8424,
                8686,
                8390,
                9059,
                5772,
                4475,
                3992,
                4358,
                4479,
                4812,
                5221,
                5368,
                5481,
                5179,
                5762,
                6871,
                5210,
                5410,
                5724,
                6267,
                5983,
                6254,
                5835,
                5534,
                6086,
                6061,
                6264,
                6011,
                6357,
                7097,
                7056,
                8695,
                8147,
                9045,
                7157,
                7395,
                6889,
                6695,
                7504,
                6854,
                7453,
                8226,
                8102,
                7709,
                7166,
                7548,
                7348,
                7294,
                7815,
                7768,
                7833,
                8296,
                5429,
                4402,
                4120,
                4380,
                4456,
                4715,
                5197,
                5226,
                5559,
                5127,
                5663,
                6818,
                5395,
                5388,
                5643,
                6255,
                5875,
                6100,
                5708,
                5500,
                5911,
                6021,
                6174,
                5965,
                6256,
                6938,
                6983,
                8430,
                7945,
                8747,
                6991,
                7200,
                7165,
                6676,
                7298,
                6766,
                7290,
                7997,
                7845,
                7516,
                6924,
                7292,
                7148,
                7089,
                7608,
                7871,
                7565,
                8091,
                5279,
                4556,
                4099,
                4380,
                4521,
                4811,
                5144,
                5257,
                5524,
                5223,
                5761,
                7024,
                5305,
                5350,
                5717,
                6210,
                5896,
                6096,
                5648,
                5522,
                5800,
                5997,
                6223,
                5972,
                6202,
                6841,
                6976,
                8322,
                7841,
                8660,
                6973,
                7098,
                7082,
                6631,
                7204,
                6721,
                7264,
                7876,
                7863,
                7458,
                6883,
                7240,
                7010,
                6996,
                7674,
                7771,
                7564,
                7977,
                5167,
                4775,
                4054,
                4402,
                4587,
                4880,
                5117,
                5255,
                5473,
                5010,
                5733,
                6936,
                5494,
                5351,
                5701,
                6242,
                5869,
                5994,
                5648,
                5592,
                5822,
                5984,
                6159,
                5926,
                6147,
                6856,
                6820,
                8347,
                7804,
                8641,
                7019,
                7171,
                7133,
                6541,
                7211,
                6607,
                7068,
                7789,
                7719,
                7439,
                6873,
                7214,
                7099,
                6987,
                7563,
                7629,
                7548,
                7908,
                5233
            ],
            "TriggerTime": [
                75.0,
                975.0,
                150.0,
                1050.0,
                225.0,
                1125.0,
                300.0,
                1200.0,
                375.0,
                1275.0,
                450.0,
                1350.0,
                525.0,
                1425.0,
                600.0,
                1500.0,
                675.0,
                1575.0,
                750.0,
                1650.0,
                825.0,
                1800.0,
                900.0,
                1725.0,
                75.0,
                975.0,
                150.0,
                1050.0,
                225.0,
                1125.0,
                300.0,
                1200.0,
                375.0,
                1275.0,
                450.0,
                1350.0,
                525.0,
                1425.0,
                600.0,
                1500.0,
                675.0,
                1575.0,
                750.0,
                1650.0,
                825.0,
                1800.0,
                900.0,
                1725.0,
                1875.0,
                2775.0,
                1950.0,
                2850.0,
                2025.0,
                2925.0,
                2100.0,
                3000.0,
                2175.0,
                3075.0,
                2250.0,
                3150.0,
                2325.0,
                3225.0,
                2400.0,
                3300.0,
                2475.0,
                3375.0,
                2550.0,
                3450.0,
                2625.0,
                3600.0,
                2700.0,
                3525.0,
                1875.0,
                2775.0,
                1950.0,
                2850.0,
                2025.0,
                2925.0,
                2100.0,
                3000.0,
                2175.0,
                3075.0,
                2250.0,
                3150.0,
                2325.0,
                3225.0,
                2400.0,
                3300.0,
                2475.0,
                3375.0,
                2550.0,
                3450.0,
                2625.0,
                3600.0,
                2700.0,
                3525.0,
                3675.0,
                4575.0,
                3750.0,
                4650.0,
                3825.0,
                4725.0,
                3900.0,
                4800.0,
                3975.0,
                4875.0,
                4050.0,
                4950.0,
                4125.0,
                5025.0,
                4200.0,
                5100.0,
                4275.0,
                5175.0,
                4350.0,
                5250.0,
                4425.0,
                5400.0,
                4500.0,
                5325.0,
                3675.0,
                4575.0,
                3750.0,
                4650.0,
                3825.0,
                4725.0,
                3900.0,
                4800.0,
                3975.0,
                4875.0,
                4050.0,
                4950.0,
                4125.0,
                5025.0,
                4200.0,
                5100.0,
                4275.0,
                5175.0,
                4350.0,
                5250.0,
                4425.0,
                5400.0,
                4500.0,
                5325.0,
                5475.0,
                6375.0,
                5550.0,
                6450.0,
                5625.0,
                6525.0,
                5700.0,
                6600.0,
                5775.0,
                6675.0,
                5850.0,
                6750.0,
                5925.0,
                6825.0,
                6000.0,
                6900.0,
                6075.0,
                6975.0,
                6150.0,
                7050.0,
                6225.0,
                7200.0,
                6300.0,
                7125.0,
                5475.0,
                6375.0,
                5550.0,
                6450.0,
                5625.0,
                6525.0,
                5700.0,
                6600.0,
                5775.0,
                6675.0,
                5850.0,
                6750.0,
                5925.0,
                6825.0,
                6000.0,
                6900.0,
                6075.0,
                6975.0,
                6150.0,
                7050.0,
                6225.0,
                7200.0,
                6300.0,
                7125.0,
                7275.0,
                8175.0,
                7350.0,
                8250.0,
                7425.0,
                8325.0,
                7500.0,
                8400.0,
                7575.0,
                8475.0,
                7650.0,
                8550.0,
                7725.0,
                8625.0,
                7800.0,
                8700.0,
                7875.0,
                8775.0,
                7950.0,
                8850.0,
                8025.0,
                9000.0,
                8100.0,
                8925.0,
                7275.0,
                8175.0,
                7350.0,
                8250.0,
                7425.0,
                8325.0,
                7500.0,
                8400.0,
                7575.0,
                8475.0,
                7650.0,
                8550.0,
                7725.0,
                8625.0,
                7800.0,
                8700.0,
                7875.0,
                8775.0,
                7950.0,
                8850.0,
                8025.0,
                9000.0,
                8100.0,
                8925.0,
                9075.0,
                9975.0,
                9150.0,
                10050.0,
                9225.0,
                10125.0,
                9300.0,
                10200.0,
                9375.0,
                10275.0,
                9450.0,
                10350.0,
                9525.0,
                10425.0,
                9600.0,
                10500.0,
                9675.0,
                10575.0,
                9750.0,
                10650.0,
                9825.0,
                10800.0,
                9900.0,
                10725.0,
                9075.0,
                9975.0,
                9150.0,
                10050.0,
                9225.0,
                10125.0,
                9300.0,
                10200.0,
                9375.0,
                10275.0,
                9450.0,
                10350.0,
                9525.0,
                10425.0,
                9600.0,
                10500.0,
                9675.0,
                10575.0,
                9750.0,
                10650.0,
                9825.0,
                10800.0,
                9900.0,
                10725.0
            ],
            "WindowCenter": [
                3613.0,
                3151.0,
                3566.0,
                3564.0,
                3766.0,
                4303.0,
                4491.0,
                4273.0,
                4129.0,
                4085.0,
                5445.0,
                3821.0,
                4221.0,
                4042.0,
                5003.0,
                4738.0,
                5448.0,
                4834.0,
                4812.0,
                4831.0,
                4896.0,
                4575.0,
                4718.0,
                4779.0,
                6049.0,
                5512.0,
                7152.0,
                6577.0,
                7505.0,
                5667.0,
                5841.0,
                5871.0,
                5604.0,
                5970.0,
                5629.0,
                5991.0,
                6693.0,
                6403.0,
                6437.0,
                5677.0,
                5980.0,
                5799.0,
                5945.0,
                6152.0,
                6489.0,
                6070.0,
                6753.0,
                4185.0,
                2956.0,
                2455.0,
                2745.0,
                2753.0,
                2999.0,
                3378.0,
                3485.0,
                3532.0,
                3180.0,
                3469.0,
                4433.0,
                3397.0,
                3328.0,
                3472.0,
                4011.0,
                3852.0,
                4128.0,
                3754.0,
                3612.0,
                3900.0,
                3814.0,
                3981.0,
                3861.0,
                3922.0,
                4615.0,
                4440.0,
                5640.0,
                5221.0,
                5863.0,
                4571.0,
                4848.0,
                4699.0,
                4355.0,
                4755.0,
                4447.0,
                4756.0,
                5295.0,
                5171.0,
                4977.0,
                4633.0,
                4923.0,
                4747.0,
                4709.0,
                5054.0,
                5211.0,
                5034.0,
                5435.0,
                3463.0,
                2685.0,
                2395.0,
                2614.0,
                2687.0,
                2887.0,
                3132.0,
                3220.0,
                3288.0,
                3107.0,
                3457.0,
                4122.0,
                3126.0,
                3246.0,
                3434.0,
                3760.0,
                3589.0,
                3752.0,
                3501.0,
                3320.0,
                3651.0,
                3636.0,
                3758.0,
                3606.0,
                3814.0,
                4258.0,
                4233.0,
                5217.0,
                4888.0,
                5427.0,
                4294.0,
                4437.0,
                4133.0,
                4017.0,
                4502.0,
                4112.0,
                4471.0,
                4935.0,
                4861.0,
                4625.0,
                4299.0,
                4528.0,
                4408.0,
                4376.0,
