{
    "AcquisitionMatrixPE": 88,
    "AcquisitionNumber": 1,
    "AcquisitionTime": "15:50:58.000000",
    "BodyPartExamined": "BRAIN",
    "CoilString": "48HAP",
    "ConversionSoftware": "dcm2niix",
    "ConversionSoftwareVersion": "v1.0.20190410  GCC6.3.0",
    "DeviceSerialNumber": "0000000319335MR2",
    "EchoTime": 0.03,
    "EffectiveEchoSpacing": 0.000564,
    "FlipAngle": 75,
    "ImageOrientationPatientDICOM": [
        1,
        0,
        0,
        0,
        1,
        0
    ],
    "ImageType": [
        "ORIGINAL",
        "PRIMARY",
        "OTHER"
    ],
    "ImagingFrequency": 127.754,
    "InPlanePhaseEncodingDirectionDICOM": "COL",
    "InstitutionName": "Iowa_MRRF",
    "IntendedFor": [
        "func/sub-10027_task-ThalHi_run-005_bold.nii.gz",
        "func/sub-10027_task-ThalHi_run-006_bold.nii.gz",
        "func/sub-10027_task-ThalHi_run-007_bold.nii.gz",
        "func/sub-10027_task-ThalHi_run-008_bold.nii.gz"
    ],
    "MRAcquisitionType": "2D",
    "MagneticFieldStrength": 3,
    "Manufacturer": "GE",
    "ManufacturersModelName": "SIGNA_Premier",
    "Modality": "MR",
    "PatientPosition": "HFS",
    "PercentPhaseFOV": 100,
    "PhaseEncodingDirection": "j",
    "PhaseEncodingPolarityGE": "Flipped",
    "PixelBandwidth": 3906.25,
    "ProcedureStepDescription": "HWANG_NET",
    "ProtocolName": "EPI_FM_pepolar=0",
    "ReconMatrixPE": 128,
    "RepetitionTime": 1.8,
    "SAR": 0.081871,
    "ScanOptions": "SAT_GEMS_EDR_GEMS_MP_GEMS_EPI_GEMS_HYPERBAND_GEMS_FS",
    "ScanningSequence": "EP_GR",
    "SequenceVariant": "SS",
    "SeriesDescription": "EPI_FM_pepolar=0",
    "SeriesNumber": 10,
    "SliceThickness": 2.5,
    "SliceTiming": [
        0,
        0.9,
        0.075,
        0.975,
        0.15,
        1.05,
        0.225,
        1.125,
        0.3,
        1.2,
        0.375,
        1.275,
        0.45,
        1.35,
        0.525,
        1.425,
        0.6,
        1.5,
        0.675,
        1.575,
        0.75,
        1.725,
        0.825,
        1.65,
        0,
        0.9,
        0.075,
        0.975,
        0.15,
        1.05,
        0.225,
        1.125,
        0.3,
        1.2,
        0.375,
        1.275,
        0.45,
        1.35,
        0.525,
        1.425,
        0.6,
        1.5,
        0.675,
        1.575,
        0.75,
        1.725,
        0.825,
        1.65
    ],
    "SoftwareVersions": "28_LX_MR_Software_release:RX28.0_R05_2035.a",
    "SpacingBetweenSlices": 2.5,
    "StationName": "Iowa3T",
    "TotalReadoutTime": 0.071628,
    "TriggerDelayTime": 10650,
    "dcmmeta_affine": [
        [
            -1.7187999486923218,
            0.0,
            0.0,
            108.34646606445312
        ],
        [
            0.0,
            1.7187999486923218,
            0.0,
            -112.73899841308594
        ],
        [
            0.0,
            0.0,
            2.5,
            -45.480133056640625
        ],
        [
            0.0,
            0.0,
            0.0,
            1.0
        ]
    ],
    "dcmmeta_reorient_transform": [
        [
            0.0,
            -1.0,
            0.0,
            127.0
        ],
        [
            1.0,
            0.0,
            0.0,
            0.0
        ],
        [
            0.0,
            0.0,
            -1.0,
            47.0
        ],
        [
            0.0,
            0.0,
            0.0,
            1.0
        ]
    ],
    "dcmmeta_shape": [
        128,
        128,
        48,
        6
    ],
    "dcmmeta_slice_dim": 2,
    "dcmmeta_version": 0.6,
    "global": {
        "const": {
            "AcquisitionMatrix": [
                88,
                0,
                0,
                88
            ],
            "AcquisitionNumber": 1,
            "AcquisitionTime": "155058",
            "AnatomicRegionSequence": [
                {
                    "CodeMeaning": "Brain",
                    "CodeValue": "T-A0100",
                    "CodingSchemeDesignator": "SRT"
                }
            ],
            "AngioFlag": "N",
            "BeatRejectionFlag": "Y",
            "BitsAllocated": 16,
            "BitsStored": 16,
            "BodyPartExamined": "BRAIN",
            "CardiacNumberOfImages": 0,
            "Columns": 128,
            "ContentTime": "155058",
            "EchoNumbers": 1,
            "EchoTime": 30.0,
            "EchoTrainLength": 1,
            "FlipAngle": 75.0,
            "GroupLength_0X40_0X0": 98,
            "GroupLength_0X7FE0_0X0": 32780,
            "HeartRate": 0,
            "HighBit": 15,
            "ImageOrientationPatient": [
                1.0,
                -0.0,
                0.0,
                -0.0,
                1.0,
                0.0
            ],
            "ImageType": [
                "ORIGINAL",
                "PRIMARY",
                "OTHER"
            ],
            "ImagedNucleus": "1H",
            "ImagesInAcquisition": 288,
            "ImagingFrequency": 127.753605,
            "InPlanePhaseEncodingDirection": "COL",
            "MRAcquisitionType": "2D",
            "MagneticFieldStrength": 3.0,
            "Manufacturer": "GE MEDICAL SYSTEMS",
            "ManufacturerModelName": "SIGNA Premier",
            "Modality": "MR",
            "NumberOfAverages": 1.0,
            "NumberOfTemporalPositions": 6,
            "PercentPhaseFieldOfView": 100.0,
            "PercentSampling": 100.0,
            "PerformedLocation": "Iowa",
            "PerformedProcedureStepStartTime": "150821",
            "PhotometricInterpretation": "MONOCHROME2",
            "PixelBandwidth": 3906.25,
            "PixelRepresentation": 1,
            "PixelSpacing": [
                1.7188,
                1.7188
            ],
            "ProtocolName": "HWANG_NET_THALHI",
            "ReceiveCoilName": "48HAP",
            "ReconstructionDiameter": 220.0,
            "ReferencedPerformedProcedureStepSequence": [
                {
                    "ReferencedSOPClassUID": "1.2.840.10008.3.1.2.3.3",
                    "ReferencedSOPInstanceUID": "1.2.840.113619.6.475.158765193661991578010141138922670764311"
                }
            ],
            "RepetitionTime": 1800.0,
            "Rows": 128,
            "SAR": 0.081871,
            "SamplesPerPixel": 1,
            "ScanOptions": [
                "SAT_GEMS",
                "EDR_GEMS",
                "MP_GEMS",
                "EPI_GEMS",
                "HYPERBAND_GEMS",
                "FS"
            ],
            "ScanningSequence": [
                "EP",
                "GR"
            ],
            "SequenceVariant": "SS",
            "SeriesDescription": "EPI FM pepolar=0",
            "SeriesNumber": 10,
            "SeriesTime": "155058",
            "SliceThickness": 2.5,
            "SmallestImagePixelValue": 0,
            "SoftwareVersions": [
                "28",
                "LX",
                "MR Software release:RX28.0_R05_2035.a"
            ],
            "SpacingBetweenSlices": 2.5,
            "SpecificCharacterSet": "ISO_IR 100",
            "StackID": "1",
            "StudyID": "1257",
            "StudyTime": "150835",
            "TriggerWindow": 0,
            "VariableFlipAngleFlag": "N"
        },
        "slices": {
            "InstanceNumber": [
                1,
                2,
                3,
                4,
                5,
                6,
                7,
                8,
                9,
                10,
                11,
                12,
                13,
                14,
                15,
                16,
                17,
                18,
                19,
                20,
                21,
                22,
                23,
                24,
                25,
                26,
                27,
                28,
                29,
                30,
                31,
                32,
                33,
                34,
                35,
                36,
                37,
                38,
                39,
                40,
                41,
                42,
                43,
                44,
                45,
                46,
                47,
                48,
                49,
                50,
                51,
                52,
                53,
                54,
                55,
                56,
                57,
                58,
                59,
                60,
                61,
                62,
                63,
                64,
                65,
                66,
                67,
                68,
                69,
                70,
                71,
                72,
                73,
                74,
                75,
                76,
                77,
                78,
                79,
                80,
                81,
                82,
                83,
                84,
                85,
                86,
                87,
                88,
                89,
                90,
                91,
                92,
                93,
                94,
                95,
                96,
                97,
                98,
                99,
                100,
                101,
                102,
                103,
                104,
                105,
                106,
                107,
                108,
                109,
                110,
                111,
                112,
                113,
                114,
                115,
                116,
                117,
                118,
                119,
                120,
                121,
                122,
                123,
                124,
                125,
                126,
                127,
                128,
                129,
                130,
                131,
                132,
                133,
                134,
                135,
                136,
                137,
                138,
                139,
                140,
                141,
                142,
                143,
                144,
                145,
                146,
                147,
                148,
                149,
                150,
                151,
                152,
                153,
                154,
                155,
                156,
                157,
                158,
                159,
                160,
                161,
                162,
                163,
                164,
                165,
                166,
                167,
                168,
                169,
                170,
                171,
                172,
                173,
                174,
                175,
                176,
                177,
                178,
                179,
                180,
                181,
                182,
                183,
                184,
                185,
                186,
                187,
                188,
                189,
                190,
                191,
                192,
                193,
                194,
                195,
                196,
                197,
                198,
                199,
                200,
                201,
                202,
                203,
                204,
                205,
                206,
                207,
                208,
                209,
                210,
                211,
                212,
                213,
                214,
                215,
                216,
                217,
                218,
                219,
                220,
                221,
                222,
                223,
                224,
                225,
                226,
                227,
                228,
                229,
                230,
                231,
                232,
                233,
                234,
                235,
                236,
                237,
                238,
                239,
                240,
                241,
                242,
                243,
                244,
                245,
                246,
                247,
                248,
                249,
                250,
                251,
                252,
                253,
                254,
                255,
                256,
                257,
                258,
                259,
                260,
                261,
                262,
                263,
                264,
                265,
                266,
                267,
                268,
                269,
                270,
                271,
                272,
                273,
                274,
                275,
                276,
                277,
                278,
                279,
                280,
                281,
                282,
                283,
                284,
                285,
                286,
                287,
                288
            ],
            "LargestImagePixelValue": [
                5184,
                4447,
                4746,
                4253,
                5004,
                4793,
                5226,
                4688,
                5409,
                5009,
                5893,
                5202,
                5772,
                5011,
                6122,
                6176,
                5918,
                5406,
                6398,
                6087,
                6690,
                6249,
                7767,
                6341,
                6953,
                6983,
                7548,
                6913,
                7654,
                7018,
                7687,
                7992,
                9208,
                9136,
                8429,
                8255,
                9003,
                8965,
                9326,
                9163,
                9241,
                9538,
                8058,
                8514,
                9593,
                8747,
                9743,
                7747,
                4936,
                4537,
                3571,
                3594,
                3747,
                4095,
                4172,
                4010,
                4128,
                4078,
                4539,
                4221,
                4407,
                4265,
                5941,
                5696,
                4676,
                4700,
                5151,
                5059,
                5365,
                5479,
                6421,
                5448,
                5305,
                5860,
                5828,
                5929,
                6427,
                6095,
                6318,
                6913,
                7539,
                7658,
                7216,
                7397,
                7804,
                7675,
                7607,
                7991,
                7748,
                8291,
                6791,
                7515,
                8029,
                8369,
                8393,
                6484,
                4477,
                3667,
                3466,
                3482,
                3780,
                3955,
                3972,
                3848,
                4004,
                3914,
                4311,
                4096,
                4129,
                4171,
                5088,
                4972,
                4513,
                4618,
                4962,
                5019,
                5178,
                5285,
                5221,
                5279,
                5113,
                5535,
                5593,
                5807,
                6070,
                5940,
                6038,
                6655,
                6914,
                7169,
                6822,
                7447,
                7433,
                7423,
                7210,
                7605,
                7344,
                7764,
                6399,
                7250,
                7595,
                7936,
                7894,
                6217,
                3944,
                3503,
                3403,
                3549,
                3758,
                3844,
                3988,
                3929,
                3928,
                3836,
                4196,
                3952,
                4133,
                4115,
                4694,
                5282,
                4474,
                4646,
                4720,
                4880,
                5171,
                5326,
                5916,
                5220,
                5111,
                5444,
                5563,
                5777,
                5723,
                5969,
                6029,
                6645,
                6899,
                7104,
                6689,
                7305,
                7309,
                7384,
                7121,
                7456,
                7255,
                7591,
                6405,
                7094,
                7312,
                7745,
                7664,
                6350,
                4938,
                3681,
                4373,
                3528,
                3812,
                3958,
                4028,
                3916,
                4033,
                3792,
                4230,
                3900,
                4100,
                4222,
                4550,
                4721,
                4535,
                4581,
                4881,
                4862,
                5105,
                5315,
                5762,
                5093,
                5153,
                5170,
                5525,
                5766,
                6085,
                5854,
                6077,
                6616,
                6911,
                7091,
                6734,
                7252,
                7284,
                7239,
                6841,
                7348,
                7075,
                7612,
                6333,
                7048,
                7265,
                7717,
                7856,
                6072,
                3742,
                3582,
                3435,
                3542,
                3787,
                3925,
                3975,
                3843,
                3976,
                3823,
                4121,
                3940,
                3986,
                4134,
                5213,
                4543,
                4550,
                4594,
                4814,
                4779,
                5149,
                5325,
                5803,
                5180,
                5111,
                5373,
                5557,
                5747,
                5996,
                5874,
                6115,
                6559,
                6867,
                6993,
                6666,
                6836,
                7251,
                6741,
                7131,
                7379,
                7141,
                7461,
                6305,
                6973,
                7274,
                7673,
                7638,
                6261
            ],
            "TriggerTime": [
                75.0,
                975.0,
                150.0,
                1050.0,
                225.0,
                1125.0,
                300.0,
                1200.0,
                375.0,
                1275.0,
                450.0,
                1350.0,
                525.0,
                1425.0,
                600.0,
                1500.0,
                675.0,
                1575.0,
                750.0,
                1650.0,
                825.0,
                1800.0,
                900.0,
                1725.0,
                75.0,
                975.0,
                150.0,
                1050.0,
                225.0,
                1125.0,
                300.0,
                1200.0,
                375.0,
                1275.0,
                450.0,
                1350.0,
                525.0,
                1425.0,
                600.0,
                1500.0,
                675.0,
                1575.0,
                750.0,
                1650.0,
                825.0,
                1800.0,
                900.0,
                1725.0,
                1875.0,
                2775.0,
                1950.0,
                2850.0,
                2025.0,
                2925.0,
                2100.0,
                3000.0,
                2175.0,
                3075.0,
                2250.0,
                3150.0,
                2325.0,
                3225.0,
                2400.0,
                3300.0,
                2475.0,
                3375.0,
                2550.0,
                3450.0,
                2625.0,
                3600.0,
                2700.0,
                3525.0,
                1875.0,
                2775.0,
                1950.0,
                2850.0,
                2025.0,
                2925.0,
                2100.0,
                3000.0,
                2175.0,
                3075.0,
                2250.0,
                3150.0,
                2325.0,
                3225.0,
                2400.0,
                3300.0,
                2475.0,
                3375.0,
                2550.0,
                3450.0,
                2625.0,
                3600.0,
                2700.0,
                3525.0,
                3675.0,
                4575.0,
                3750.0,
                4650.0,
                3825.0,
                4725.0,
                3900.0,
                4800.0,
                3975.0,
                4875.0,
                4050.0,
                4950.0,
                4125.0,
                5025.0,
                4200.0,
                5100.0,
                4275.0,
                5175.0,
                4350.0,
                5250.0,
                4425.0,
                5400.0,
                4500.0,
                5325.0,
                3675.0,
                4575.0,
                3750.0,
                4650.0,
                3825.0,
                4725.0,
                3900.0,
                4800.0,
                3975.0,
                4875.0,
                4050.0,
                4950.0,
                4125.0,
                5025.0,
                4200.0,
                5100.0,
                4275.0,
                5175.0,
                4350.0,
                5250.0,
                4425.0,
                5400.0,
                4500.0,
                5325.0,
                5475.0,
                6375.0,
                5550.0,
                6450.0,
                5625.0,
                6525.0,
                5700.0,
                6600.0,
                5775.0,
                6675.0,
                5850.0,
                6750.0,
                5925.0,
                6825.0,
                6000.0,
                6900.0,
                6075.0,
                6975.0,
                6150.0,
                7050.0,
                6225.0,
                7200.0,
                6300.0,
                7125.0,
                5475.0,
                6375.0,
                5550.0,
                6450.0,
                5625.0,
                6525.0,
                5700.0,
                6600.0,
                5775.0,
                6675.0,
                5850.0,
                6750.0,
                5925.0,
                6825.0,
                6000.0,
                6900.0,
                6075.0,
                6975.0,
                6150.0,
                7050.0,
                6225.0,
                7200.0,
                6300.0,
                7125.0,
                7275.0,
                8175.0,
                7350.0,
                8250.0,
                7425.0,
                8325.0,
                7500.0,
                8400.0,
                7575.0,
                8475.0,
                7650.0,
                8550.0,
                7725.0,
                8625.0,
                7800.0,
                8700.0,
                7875.0,
                8775.0,
                7950.0,
                8850.0,
                8025.0,
                9000.0,
                8100.0,
                8925.0,
                7275.0,
                8175.0,
                7350.0,
                8250.0,
                7425.0,
                8325.0,
                7500.0,
                8400.0,
                7575.0,
                8475.0,
                7650.0,
                8550.0,
                7725.0,
                8625.0,
                7800.0,
                8700.0,
                7875.0,
                8775.0,
                7950.0,
                8850.0,
                8025.0,
                9000.0,
                8100.0,
                8925.0,
                9075.0,
                9975.0,
                9150.0,
                10050.0,
                9225.0,
                10125.0,
                9300.0,
                10200.0,
                9375.0,
                10275.0,
                9450.0,
                10350.0,
                9525.0,
                10425.0,
                9600.0,
                10500.0,
                9675.0,
                10575.0,
                9750.0,
                10650.0,
                9825.0,
                10800.0,
                9900.0,
                10725.0,
                9075.0,
                9975.0,
                9150.0,
                10050.0,
                9225.0,
                10125.0,
                9300.0,
                10200.0,
                9375.0,
                10275.0,
                9450.0,
                10350.0,
                9525.0,
                10425.0,
                9600.0,
                10500.0,
                9675.0,
                10575.0,
                9750.0,
                10650.0,
                9825.0,
                10800.0,
                9900.0,
                10725.0
            ],
            "WindowCenter": [
                3110.0,
                2668.0,
                2847.0,
                2551.0,
                3002.0,
                2875.0,
                3135.0,
                2812.0,
                3245.0,
                3005.0,
                3535.0,
                3121.0,
                3463.0,
                3006.0,
                3673.0,
                3705.0,
                3550.0,
                3243.0,
                3838.0,
                3652.0,
                4014.0,
                3749.0,
                4660.0,
                3804.0,
                4171.0,
                4189.0,
                4528.0,
                4147.0,
                4592.0,
                4210.0,
                4612.0,
                4795.0,
                5524.0,
                5481.0,
                5057.0,
                4953.0,
                5401.0,
                5379.0,
                5595.0,
                5497.0,
                5544.0,
                5722.0,
                4834.0,
                5108.0,
                5755.0,
                5248.0,
                5845.0,
                4648.0,
                2961.0,
                2722.0,
                2142.0,
                2156.0,
                2248.0,
                2457.0,
                2503.0,
                2406.0,
                2476.0,
                2446.0,
                2723.0,
                2532.0,
                2644.0,
                2559.0,
                3564.0,
                3417.0,
                2805.0,
                2820.0,
                3090.0,
                3035.0,
                3219.0,
                3287.0,
                3852.0,
                3268.0,
                3183.0,
                3516.0,
                3496.0,
                3557.0,
                3856.0,
                3657.0,
                3790.0,
                4147.0,
                4523.0,
                4594.0,
                4329.0,
                4438.0,
                4682.0,
                4605.0,
                4564.0,
                4794.0,
                4648.0,
                4974.0,
                4074.0,
                4509.0,
                4817.0,
                5021.0,
                5035.0,
                3890.0,
                2686.0,
                2200.0,
                2079.0,
                2089.0,
                2268.0,
                2373.0,
                2383.0,
                2308.0,
                2402.0,
                2348.0,
                2586.0,
                2457.0,
                2477.0,
                2502.0,
                3052.0,
                2983.0,
                2707.0,
                2770.0,
                2977.0,
                3011.0,
                3106.0,
                3171.0,
                3132.0,
                3167.0,
                3067.0,
                3321.0,
                3355.0,
                3484.0,
                3642.0,
                3564.0,
                3622.0,
                3993.0,
                4148.0,
                4301.0,
                4093.0,
                4468.0,
                4459.0,
                4453.0,
                4326.0,
                4563.0,
                4406.0,
                4658.0,
                3839.0,
