{
    "AcquisitionMatrixPE": 88,
    "AcquisitionNumber": 1,
    "AcquisitionTime": "11:44:33.000000",
    "BodyPartExamined": "BRAIN",
    "CoilString": "48HAP",
    "ConversionSoftware": "dcm2niix",
    "ConversionSoftwareVersion": "v1.0.20220720",
    "DeviceSerialNumber": "0000000319335MR2",
    "EchoTime": 0.03,
    "EffectiveEchoSpacing": 0.000386362,
    "FlipAngle": 75,
    "HeudiconvVersion": "0.11.6",
    "ImageOrientationPatientDICOM": [
        1,
        0,
        0,
        0,
        1,
        0
    ],
    "ImageType": [
        "ORIGINAL",
        "PRIMARY",
        "OTHER"
    ],
    "ImagingFrequency": 127.754,
    "InPlanePhaseEncodingDirectionDICOM": "COL",
    "InstitutionName": "Iowa MRRF",
    "InternalPulseSequenceName": "EPI",
    "MRAcquisitionType": "2D",
    "MagneticFieldStrength": 3,
    "Manufacturer": "GE",
    "ManufacturersModelName": "SIGNA Premier",
    "Modality": "MR",
    "MultibandAccelerationFactor": 2,
    "PatientPosition": "HFS",
    "PercentPhaseFOV": 100,
    "PercentSampling": 100,
    "PhaseEncodingDirection": "j",
    "PhaseEncodingPolarityGE": "Flipped",
    "PixelBandwidth": 3906.25,
    "PrescanReuseString": "TG/s3,RN/s3,Coil/s1",
    "ProcedureStepDescription": "HWANG_NET",
    "ProtocolName": "HWANG_NET_THALHI",
    "PulseSequenceName": "epi",
    "ReconMatrixPE": 128,
    "RepetitionTime": 1.8,
    "SAR": 0.0880408,
    "ScanOptions": "SAT_GEMS\\EDR_GEMS\\MP_GEMS\\EPI_GEMS\\HYPERBAND_GEMS\\FS",
    "ScanningSequence": "EP\\GR",
    "SequenceVariant": "SS",
    "SeriesDescription": "EPI FM pepolar=0",
    "SeriesNumber": 4,
    "ShimSetting": [
        20,
        -29,
        -220
    ],
    "SliceThickness": 2.5,
    "SliceTiming": [
        0,
        0.9,
        0.075,
        0.975,
        0.15,
        1.05,
        0.225,
        1.125,
        0.3,
        1.2,
        0.375,
        1.275,
        0.45,
        1.35,
        0.525,
        1.425,
        0.6,
        1.5,
        0.675,
        1.575,
        0.75,
        1.725,
        0.825,
        1.65,
        0,
        0.9,
        0.075,
        0.975,
        0.15,
        1.05,
        0.225,
        1.125,
        0.3,
        1.2,
        0.375,
        1.275,
        0.45,
        1.35,
        0.525,
        1.425,
        0.6,
        1.5,
        0.675,
        1.575,
        0.75,
        1.725,
        0.825,
        1.65
    ],
    "SoftwareVersions": "28\\LX\\MR Software release:RX28.0_R05_2035.a",
    "SpacingBetweenSlices": 2.5,
    "StationName": "Iowa3T",
    "TotalReadoutTime": 0.049068,
    "TriggerDelayTime": 10650,
    "dcmmeta_affine": [
        [
            -1.7187999486923218,
            0.0,
            0.0,
            108.35926818847656
        ],
        [
            0.0,
            1.7187999486923218,
            0.0,
            -115.87712860107422
        ],
        [
            0.0,
            0.0,
            2.5,
            -49.386802673339844
        ],
        [
            0.0,
            0.0,
            0.0,
            1.0
        ]
    ],
    "dcmmeta_reorient_transform": [
        [
            0.0,
            -1.0,
            0.0,
            127.0
        ],
        [
            1.0,
            0.0,
            0.0,
            0.0
        ],
        [
            0.0,
            0.0,
            -1.0,
            47.0
        ],
        [
            0.0,
            0.0,
            0.0,
            1.0
        ]
    ],
    "dcmmeta_shape": [
        128,
        128,
        48,
        6
    ],
    "dcmmeta_slice_dim": 2,
    "dcmmeta_version": 0.6,
    "global": {
        "const": {
            "AcquisitionMatrix": [
                88,
                0,
                0,
                88
            ],
            "AcquisitionNumber": 1,
            "AcquisitionTime": "114433",
            "AnatomicRegionSequence": [
                {
                    "CodeMeaning": "Brain",
                    "CodeValue": "T-A0100",
                    "CodingSchemeDesignator": "SRT"
                }
            ],
            "AngioFlag": "N",
            "BeatRejectionFlag": "Y",
            "BitsAllocated": 16,
            "BitsStored": 16,
            "BodyPartExamined": "BRAIN",
            "CardiacNumberOfImages": 0,
            "Columns": 128,
            "ContentTime": "114433",
            "EchoNumbers": 1,
            "EchoTime": 30.0,
            "EchoTrainLength": 1,
            "FlipAngle": 75.0,
            "GroupLength_0X40_0X0": 98,
            "GroupLength_0X7FE0_0X0": 32780,
            "HeartRate": 0,
            "HighBit": 15,
            "ImageOrientationPatient": [
                1.0,
                -0.0,
                0.0,
                -0.0,
                1.0,
                0.0
            ],
            "ImageType": [
                "ORIGINAL",
                "PRIMARY",
                "OTHER"
            ],
            "ImagedNucleus": "1H",
            "ImagesInAcquisition": 288,
            "ImagingFrequency": 127.753868,
            "InPlanePhaseEncodingDirection": "COL",
            "MRAcquisitionType": "2D",
            "MagneticFieldStrength": 3.0,
            "Manufacturer": "GE MEDICAL SYSTEMS",
            "ManufacturerModelName": "SIGNA Premier",
            "Modality": "MR",
            "NumberOfAverages": 1.0,
            "NumberOfTemporalPositions": 6,
            "PercentPhaseFieldOfView": 100.0,
            "PercentSampling": 100.0,
            "PerformedLocation": "Iowa",
            "PerformedProcedureStepStartTime": "113628",
            "PhotometricInterpretation": "MONOCHROME2",
            "PixelBandwidth": 3906.25,
            "PixelRepresentation": 1,
            "PixelSpacing": [
                1.7188,
                1.7188
            ],
            "ProtocolName": "HWANG_NET_THALHI",
            "ReceiveCoilName": "48HAP",
            "ReconstructionDiameter": 220.0,
            "ReferencedPerformedProcedureStepSequence": [
                {
                    "ReferencedSOPClassUID": "1.2.840.10008.3.1.2.3.3",
                    "ReferencedSOPInstanceUID": "1.2.840.113619.6.475.333164691065227710746175533471043065056"
                }
            ],
            "RepetitionTime": 1800.0,
            "Rows": 128,
            "SAR": 0.0880408,
            "SamplesPerPixel": 1,
            "ScanOptions": [
                "SAT_GEMS",
                "EDR_GEMS",
                "MP_GEMS",
                "EPI_GEMS",
                "HYPERBAND_GEMS",
                "FS"
            ],
            "ScanningSequence": [
                "EP",
                "GR"
            ],
            "SequenceVariant": "SS",
            "SeriesDescription": "EPI FM pepolar=0",
            "SeriesNumber": 4,
            "SeriesTime": "114433",
            "SliceThickness": 2.5,
            "SmallestImagePixelValue": 0,
            "SoftwareVersions": [
                "28",
                "LX",
                "MR Software release:RX28.0_R05_2035.a"
            ],
            "SpacingBetweenSlices": 2.5,
            "SpecificCharacterSet": "ISO_IR 100",
            "StackID": "1",
            "StudyID": "1479",
            "StudyTime": "113633",
            "TriggerWindow": 0,
            "VariableFlipAngleFlag": "N"
        },
        "slices": {
            "InstanceNumber": [
                1,
                2,
                3,
                4,
                5,
                6,
                7,
                8,
                9,
                10,
                11,
                12,
                13,
                14,
                15,
                16,
                17,
                18,
                19,
                20,
                21,
                22,
                23,
                24,
                25,
                26,
                27,
                28,
                29,
                30,
                31,
                32,
                33,
                34,
                35,
                36,
                37,
                38,
                39,
                40,
                41,
                42,
                43,
                44,
                45,
                46,
                47,
                48,
                49,
                50,
                51,
                52,
                53,
                54,
                55,
                56,
                57,
                58,
                59,
                60,
                61,
                62,
                63,
                64,
                65,
                66,
                67,
                68,
                69,
                70,
                71,
                72,
                73,
                74,
                75,
                76,
                77,
                78,
                79,
                80,
                81,
                82,
                83,
                84,
                85,
                86,
                87,
                88,
                89,
                90,
                91,
                92,
                93,
                94,
                95,
                96,
                97,
                98,
                99,
                100,
                101,
                102,
                103,
                104,
                105,
                106,
                107,
                108,
                109,
                110,
                111,
                112,
                113,
                114,
                115,
                116,
                117,
                118,
                119,
                120,
                121,
                122,
                123,
                124,
                125,
                126,
                127,
                128,
                129,
                130,
                131,
                132,
                133,
                134,
                135,
                136,
                137,
                138,
                139,
                140,
                141,
                142,
                143,
                144,
                145,
                146,
                147,
                148,
                149,
                150,
                151,
                152,
                153,
                154,
                155,
                156,
                157,
                158,
                159,
                160,
                161,
                162,
                163,
                164,
                165,
                166,
                167,
                168,
                169,
                170,
                171,
                172,
                173,
                174,
                175,
                176,
                177,
                178,
                179,
                180,
                181,
                182,
                183,
                184,
                185,
                186,
                187,
                188,
                189,
                190,
                191,
                192,
                193,
                194,
                195,
                196,
                197,
                198,
                199,
                200,
                201,
                202,
                203,
                204,
                205,
                206,
                207,
                208,
                209,
                210,
                211,
                212,
                213,
                214,
                215,
                216,
                217,
                218,
                219,
                220,
                221,
                222,
                223,
                224,
                225,
                226,
                227,
                228,
                229,
                230,
                231,
                232,
                233,
                234,
                235,
                236,
                237,
                238,
                239,
                240,
                241,
                242,
                243,
                244,
                245,
                246,
                247,
                248,
                249,
                250,
                251,
                252,
                253,
                254,
                255,
                256,
                257,
                258,
                259,
                260,
                261,
                262,
                263,
                264,
                265,
                266,
                267,
                268,
                269,
                270,
                271,
                272,
                273,
                274,
                275,
                276,
                277,
                278,
                279,
                280,
                281,
                282,
                283,
                284,
                285,
                286,
                287,
                288
            ],
            "LargestImagePixelValue": [
                4939,
                4616,
                4851,
                4454,
                5126,
                4478,
                4944,
                4968,
                5926,
                5547,
                5616,
                5291,
                5286,
                4788,
                5361,
                4808,
                5588,
                5354,
                6118,
                5935,
                6843,
                5924,
                6357,
                6921,
                7464,
                6321,
                6757,
                7374,
                7002,
                6792,
                7172,
                6859,
                7520,
                7078,
                7207,
                7469,
                8810,
                9637,
                9254,
                9446,
                8917,
                8057,
                7732,
                7689,
                7425,
                7556,
                8065,
                7167,
                4554,
                3816,
                3592,
                3793,
                3894,
                3774,
                3771,
                4038,
                4742,
                4658,
                4392,
                4980,
                4057,
                4050,
                4276,
                4089,
                4489,
                4614,
                4857,
                5146,
                5337,
                4879,
                5076,
                5915,
                6043,
                5381,
                5123,
                5703,
                5748,
                5895,
                5714,
                5650,
                6286,
                5834,
                5816,
                6129,
                7303,
                8283,
                7679,
                8041,
                7402,
                6764,
                6151,
                6134,
                5862,
                6447,
                6614,
                5976,
                3508,
                3333,
                3448,
                3656,
                3688,
                3670,
                3638,
                3771,
                4376,
                4195,
                4104,
                4632,
                3911,
                3976,
                4042,
                3960,
                4307,
                4523,
                4588,
                4836,
                5016,
                4754,
                4947,
                5560,
                5605,
                5133,
                4869,
                5702,
                5460,
                5612,
                5511,
                5271,
                5844,
                5470,
                5482,
                5844,
                6760,
                7712,
                7081,
                7585,
                7097,
                6313,
                5629,
                5652,
                5380,
                5973,
                5907,
                5581,
                3495,
                3500,
                3347,
                3598,
                3617,
                3582,
                3558,
                3795,
                4099,
                4144,
                3969,
                4559,
                3796,
                3953,
                3980,
                4021,
                4067,
                4544,
                4529,
                4649,
                4933,
                4796,
                4851,
                5403,
                5498,
                5129,
                4766,
                5450,
                5311,
                5424,
                5420,
                5168,
                5659,
                5366,
                5389,
                5504,
                6593,
                7447,
                6854,
                7273,
                6862,
                6039,
                5464,
                5520,
                5267,
                5927,
                5854,
                5512,
                3810,
                3205,
                3446,
                3598,
                3748,
                3696,
                3616,
                3758,
                4124,
                4031,
                3899,
                4523,
                3933,
                3867,
                3991,
                4046,
                4200,
                4544,
                4678,
                4531,
                5094,
                4895,
                4877,
                5329,
                5212,
                5167,
                4714,
                5607,
                4975,
                5250,
                5267,
                5299,
                5550,
                5297,
                5315,
                5741,
                6618,
                7271,
                6865,
                7023,
                6432,
                5970,
                5546,
                5496,
                5419,
                5755,
                5729,
                5400,
                3057,
                3325,
                3474,
                3662,
                3641,
                3618,
                3588,
                3799,
                4266,
                3969,
                3901,
                4489,
                3890,
                3956,
                4063,
                4028,
                4190,
                4553,
                4533,
                4609,
                4994,
                4887,
                4907,
                5360,
                5341,
                5143,
                4754,
                5452,
                5133,
                5184,
                5355,
                5197,
                5497,
                5361,
                5259,
                5651,
                6530,
                7269,
                6749,
                7104,
                6736,
                5935,
                5349,
                5374,
                5190,
                5544,
                5745,
                5312
            ],
            "TriggerTime": [
                75.0,
                975.0,
                150.0,
                1050.0,
                225.0,
                1125.0,
                300.0,
                1200.0,
                375.0,
                1275.0,
                450.0,
                1350.0,
                525.0,
                1425.0,
                600.0,
                1500.0,
                675.0,
                1575.0,
                750.0,
                1650.0,
                825.0,
                1800.0,
                900.0,
                1725.0,
                75.0,
                975.0,
                150.0,
                1050.0,
                225.0,
                1125.0,
                300.0,
                1200.0,
                375.0,
                1275.0,
                450.0,
                1350.0,
                525.0,
                1425.0,
                600.0,
                1500.0,
                675.0,
                1575.0,
                750.0,
                1650.0,
                825.0,
                1800.0,
                900.0,
                1725.0,
                1875.0,
                2775.0,
                1950.0,
                2850.0,
                2025.0,
                2925.0,
                2100.0,
                3000.0,
                2175.0,
                3075.0,
                2250.0,
                3150.0,
                2325.0,
                3225.0,
                2400.0,
                3300.0,
                2475.0,
                3375.0,
                2550.0,
                3450.0,
                2625.0,
                3600.0,
                2700.0,
                3525.0,
                1875.0,
                2775.0,
                1950.0,
                2850.0,
                2025.0,
                2925.0,
                2100.0,
                3000.0,
                2175.0,
                3075.0,
                2250.0,
                3150.0,
                2325.0,
                3225.0,
                2400.0,
                3300.0,
                2475.0,
                3375.0,
                2550.0,
                3450.0,
                2625.0,
                3600.0,
                2700.0,
                3525.0,
                3675.0,
                4575.0,
                3750.0,
                4650.0,
                3825.0,
                4725.0,
                3900.0,
                4800.0,
                3975.0,
                4875.0,
                4050.0,
                4950.0,
                4125.0,
                5025.0,
                4200.0,
                5100.0,
                4275.0,
                5175.0,
                4350.0,
                5250.0,
                4425.0,
                5400.0,
                4500.0,
                5325.0,
                3675.0,
                4575.0,
                3750.0,
                4650.0,
                3825.0,
                4725.0,
                3900.0,
                4800.0,
                3975.0,
                4875.0,
                4050.0,
                4950.0,
                4125.0,
                5025.0,
                4200.0,
                5100.0,
                4275.0,
                5175.0,
                4350.0,
                5250.0,
                4425.0,
                5400.0,
                4500.0,
                5325.0,
                5475.0,
                6375.0,
                5550.0,
                6450.0,
                5625.0,
                6525.0,
                5700.0,
                6600.0,
                5775.0,
                6675.0,
                5850.0,
                6750.0,
                5925.0,
                6825.0,
                6000.0,
                6900.0,
                6075.0,
                6975.0,
                6150.0,
                7050.0,
                6225.0,
                7200.0,
                6300.0,
                7125.0,
                5475.0,
                6375.0,
                5550.0,
                6450.0,
                5625.0,
                6525.0,
                5700.0,
                6600.0,
                5775.0,
                6675.0,
                5850.0,
                6750.0,
                5925.0,
                6825.0,
                6000.0,
                6900.0,
                6075.0,
                6975.0,
                6150.0,
                7050.0,
                6225.0,
                7200.0,
                6300.0,
                7125.0,
                7275.0,
                8175.0,
                7350.0,
                8250.0,
                7425.0,
                8325.0,
                7500.0,
                8400.0,
                7575.0,
                8475.0,
                7650.0,
                8550.0,
                7725.0,
                8625.0,
                7800.0,
                8700.0,
                7875.0,
                8775.0,
                7950.0,
                8850.0,
                8025.0,
                9000.0,
                8100.0,
                8925.0,
                7275.0,
                8175.0,
                7350.0,
                8250.0,
                7425.0,
                8325.0,
                7500.0,
                8400.0,
                7575.0,
                8475.0,
                7650.0,
                8550.0,
                7725.0,
                8625.0,
                7800.0,
                8700.0,
                7875.0,
                8775.0,
                7950.0,
                8850.0,
                8025.0,
                9000.0,
                8100.0,
                8925.0,
                9075.0,
                9975.0,
                9150.0,
                10050.0,
                9225.0,
                10125.0,
                9300.0,
                10200.0,
                9375.0,
                10275.0,
                9450.0,
                10350.0,
                9525.0,
                10425.0,
                9600.0,
                10500.0,
                9675.0,
                10575.0,
                9750.0,
                10650.0,
                9825.0,
                10800.0,
                9900.0,
                10725.0,
                9075.0,
                9975.0,
                9150.0,
                10050.0,
                9225.0,
                10125.0,
                9300.0,
                10200.0,
                9375.0,
                10275.0,
                9450.0,
                10350.0,
                9525.0,
                10425.0,
                9600.0,
                10500.0,
                9675.0,
                10575.0,
                9750.0,
                10650.0,
                9825.0,
                10800.0,
                9900.0,
                10725.0
            ],
            "WindowCenter": [
                2963.0,
                2769.0,
                2910.0,
                2672.0,
                3075.0,
                2686.0,
                2966.0,
                2980.0,
                3555.0,
                3328.0,
                3369.0,
                3174.0,
                3171.0,
                2872.0,
                3216.0,
                2884.0,
                3352.0,
                3212.0,
                3670.0,
                3561.0,
                4105.0,
                3554.0,
                3814.0,
                4152.0,
                4478.0,
                3792.0,
                4054.0,
                4424.0,
                4201.0,
                4075.0,
                4303.0,
                4115.0,
                4512.0,
                4246.0,
                4324.0,
                4481.0,
                5286.0,
                5782.0,
                5552.0,
                5667.0,
                5350.0,
                4834.0,
                4639.0,
                4613.0,
                4455.0,
                4533.0,
                4839.0,
                4300.0,
                2732.0,
                2289.0,
                2155.0,
                2275.0,
                2336.0,
                2264.0,
                2262.0,
                2422.0,
                2845.0,
                2794.0,
                2635.0,
                2988.0,
                2434.0,
                2430.0,
                2565.0,
                2453.0,
                2693.0,
                2768.0,
                2914.0,
                3087.0,
                3202.0,
                2927.0,
                3045.0,
                3549.0,
                3625.0,
                3228.0,
                3073.0,
                3421.0,
                3448.0,
                3537.0,
                3428.0,
                3390.0,
                3771.0,
                3500.0,
                3489.0,
                3677.0,
                4381.0,
                4969.0,
                4607.0,
                4824.0,
                4441.0,
                4058.0,
                3690.0,
                3680.0,
                3517.0,
                3868.0,
                3968.0,
                3585.0,
                2104.0,
                1999.0,
                2068.0,
                2193.0,
                2212.0,
                2202.0,
                2182.0,
                2262.0,
                2625.0,
                2517.0,
                2462.0,
                2779.0,
                2346.0,
                2385.0,
                2425.0,
                2376.0,
                2584.0,
                2713.0,
                2752.0,
                2901.0,
                3009.0,
                2852.0,
                2968.0,
                3336.0,
                3363.0,
                3079.0,
                2921.0,
                3421.0,
                3276.0,
                3367.0,
                3306.0,
                3162.0,
                3506.0,
                3282.0,
                3289.0,
                3506.0,
                4056.0,
                4627.0,
                4248.0,
                4551.0,
                4258.0,
                3787.0,
