{
    "AcquisitionMatrixPE": 88,
    "AcquisitionNumber": 1,
    "AcquisitionTime": "11:47:15.000000",
    "BodyPartExamined": "BRAIN",
    "CoilString": "48HAP",
    "ConversionSoftware": "dcm2niix",
    "ConversionSoftwareVersion": "v1.0.20190410  GCC6.3.0",
    "DeviceSerialNumber": "0000000319335MR2",
    "EchoTime": 0.03,
    "EffectiveEchoSpacing": 0.000564,
    "FlipAngle": 75,
    "ImageOrientationPatientDICOM": [
        1,
        0,
        0,
        0,
        1,
        0
    ],
    "ImageType": [
        "ORIGINAL",
        "PRIMARY",
        "OTHER"
    ],
    "ImagingFrequency": 127.754,
    "InPlanePhaseEncodingDirectionDICOM": "COL",
    "InstitutionName": "Iowa_MRRF",
    "IntendedFor": [
        "func/sub-10013_task-ThalHi_run-001_bold.nii.gz",
        "func/sub-10013_task-ThalHi_run-002_bold.nii.gz",
        "func/sub-10013_task-ThalHi_run-003_bold.nii.gz",
        "func/sub-10013_task-ThalHi_run-004_bold.nii.gz"
    ],
    "MRAcquisitionType": "2D",
    "MagneticFieldStrength": 3,
    "Manufacturer": "GE",
    "ManufacturersModelName": "SIGNA_Premier",
    "Modality": "MR",
    "PatientPosition": "HFS",
    "PercentPhaseFOV": 100,
    "PhaseEncodingDirection": "j-",
    "PhaseEncodingPolarityGE": "Unflipped",
    "PixelBandwidth": 3906.25,
    "ProcedureStepDescription": "HWANG_NET",
    "ProtocolName": "EPI_FM_pepolar=1",
    "ReconMatrixPE": 128,
    "RepetitionTime": 1.8,
    "SAR": 0.0980578,
    "ScanOptions": "SAT_GEMS_EDR_GEMS_MP_GEMS_EPI_GEMS_HYPERBAND_GEMS_FS",
    "ScanningSequence": "EP_GR",
    "SequenceVariant": "SS",
    "SeriesDescription": "EPI_FM_pepolar=1",
    "SeriesNumber": 5,
    "SliceThickness": 2.5,
    "SliceTiming": [
        0,
        0.9,
        0.075,
        0.975,
        0.15,
        1.05,
        0.225,
        1.125,
        0.3,
        1.2,
        0.375,
        1.275,
        0.45,
        1.35,
        0.525,
        1.425,
        0.6,
        1.5,
        0.675,
        1.575,
        0.75,
        1.725,
        0.825,
        1.65,
        0,
        0.9,
        0.075,
        0.975,
        0.15,
        1.05,
        0.225,
        1.125,
        0.3,
        1.2,
        0.375,
        1.275,
        0.45,
        1.35,
        0.525,
        1.425,
        0.6,
        1.5,
        0.675,
        1.575,
        0.75,
        1.725,
        0.825,
        1.65
    ],
    "SoftwareVersions": "28_LX_MR_Software_release:RX28.0_R04_2020.b",
    "SpacingBetweenSlices": 2.5,
    "StationName": "Iowa3T",
    "TotalReadoutTime": 0.071628,
    "TriggerDelayTime": 10650,
    "dcmmeta_affine": [
        [
            -1.7187999486923218,
            0.0,
            0.0,
            111.4718017578125
        ],
        [
            0.0,
            1.7187999486923218,
            0.0,
            -111.17633056640625
        ],
        [
            0.0,
            0.0,
            2.5,
            -31.4161376953125
        ],
        [
            0.0,
            0.0,
            0.0,
            1.0
        ]
    ],
    "dcmmeta_reorient_transform": [
        [
            0.0,
            -1.0,
            0.0,
            127.0
        ],
        [
            1.0,
            0.0,
            0.0,
            0.0
        ],
        [
            0.0,
            0.0,
            -1.0,
            47.0
        ],
        [
            0.0,
            0.0,
            0.0,
            1.0
        ]
    ],
    "dcmmeta_shape": [
        128,
        128,
        48,
        6
    ],
    "dcmmeta_slice_dim": 2,
    "dcmmeta_version": 0.6,
    "global": {
        "const": {
            "AcquisitionMatrix": [
                88,
                0,
                0,
                88
            ],
            "AcquisitionNumber": 1,
            "AcquisitionTime": "114715",
            "AnatomicRegionSequence": [
                {
                    "CodeMeaning": "Brain",
                    "CodeValue": "T-A0100",
                    "CodingSchemeDesignator": "SRT"
                }
            ],
            "AngioFlag": "N",
            "BeatRejectionFlag": "Y",
            "BitsAllocated": 16,
            "BitsStored": 16,
            "BodyPartExamined": "BRAIN",
            "CardiacNumberOfImages": 0,
            "Columns": 128,
            "ContentTime": "114715",
            "EchoNumbers": 1,
            "EchoTime": 30.0,
            "EchoTrainLength": 1,
            "FlipAngle": 75.0,
            "GroupLength_0X40_0X0": 98,
            "GroupLength_0X7FE0_0X0": 32780,
            "HeartRate": 0,
            "HighBit": 15,
            "ImageOrientationPatient": [
                1.0,
                -0.0,
                0.0,
                -0.0,
                1.0,
                0.0
            ],
            "ImageType": [
                "ORIGINAL",
                "PRIMARY",
                "OTHER"
            ],
            "ImagedNucleus": "1H",
            "ImagesInAcquisition": 288,
            "ImagingFrequency": 127.753699,
            "InPlanePhaseEncodingDirection": "COL",
            "MRAcquisitionType": "2D",
            "MagneticFieldStrength": 3.0,
            "Manufacturer": "GE MEDICAL SYSTEMS",
            "ManufacturerModelName": "SIGNA Premier",
            "Modality": "MR",
            "NumberOfAverages": 1.0,
            "NumberOfTemporalPositions": 6,
            "PercentPhaseFieldOfView": 100.0,
            "PercentSampling": 100.0,
            "PerformedLocation": "Iowa",
            "PerformedProcedureStepStartTime": "113622",
            "PhotometricInterpretation": "MONOCHROME2",
            "PixelBandwidth": 3906.25,
            "PixelRepresentation": 1,
            "PixelSpacing": [
                1.7188,
                1.7188
            ],
            "ProtocolName": "HWANG_NET_THALHI",
            "ReceiveCoilName": "48HAP",
            "ReconstructionDiameter": 220.0,
            "ReferencedPerformedProcedureStepSequence": [
                {
                    "ReferencedSOPClassUID": "1.2.840.10008.3.1.2.3.3",
                    "ReferencedSOPInstanceUID": "1.2.840.113619.6.475.261568442898599656916829940116594781522"
                }
            ],
            "RepetitionTime": 1800.0,
            "Rows": 128,
            "SAR": 0.0980578,
            "SamplesPerPixel": 1,
            "ScanOptions": [
                "SAT_GEMS",
                "EDR_GEMS",
                "MP_GEMS",
                "EPI_GEMS",
                "HYPERBAND_GEMS",
                "FS"
            ],
            "ScanningSequence": [
                "EP",
                "GR"
            ],
            "SequenceVariant": "SS",
            "SeriesDescription": "EPI FM pepolar=1",
            "SeriesNumber": 5,
            "SeriesTime": "114715",
            "SliceThickness": 2.5,
            "SmallestImagePixelValue": 0,
            "SoftwareVersions": [
                "28",
                "LX",
                "MR Software release:RX28.0_R04_2020.b"
            ],
            "SpacingBetweenSlices": 2.5,
            "SpecificCharacterSet": "ISO_IR 100",
            "StackID": "1",
            "StudyID": "743",
            "StudyTime": "113628",
            "TriggerWindow": 0,
            "VariableFlipAngleFlag": "N"
        },
        "slices": {
            "InstanceNumber": [
                1,
                2,
                3,
                4,
                5,
                6,
                7,
                8,
                9,
                10,
                11,
                12,
                13,
                14,
                15,
                16,
                17,
                18,
                19,
                20,
                21,
                22,
                23,
                24,
                25,
                26,
                27,
                28,
                29,
                30,
                31,
                32,
                33,
                34,
                35,
                36,
                37,
                38,
                39,
                40,
                41,
                42,
                43,
                44,
                45,
                46,
                47,
                48,
                49,
                50,
                51,
                52,
                53,
                54,
                55,
                56,
                57,
                58,
                59,
                60,
                61,
                62,
                63,
                64,
                65,
                66,
                67,
                68,
                69,
                70,
                71,
                72,
                73,
                74,
                75,
                76,
                77,
                78,
                79,
                80,
                81,
                82,
                83,
                84,
                85,
                86,
                87,
                88,
                89,
                90,
                91,
                92,
                93,
                94,
                95,
                96,
                97,
                98,
                99,
                100,
                101,
                102,
                103,
                104,
                105,
                106,
                107,
                108,
                109,
                110,
                111,
                112,
                113,
                114,
                115,
                116,
                117,
                118,
                119,
                120,
                121,
                122,
                123,
                124,
                125,
                126,
                127,
                128,
                129,
                130,
                131,
                132,
                133,
                134,
                135,
                136,
                137,
                138,
                139,
                140,
                141,
                142,
                143,
                144,
                145,
                146,
                147,
                148,
                149,
                150,
                151,
                152,
                153,
                154,
                155,
                156,
                157,
                158,
                159,
                160,
                161,
                162,
                163,
                164,
                165,
                166,
                167,
                168,
                169,
                170,
                171,
                172,
                173,
                174,
                175,
                176,
                177,
                178,
                179,
                180,
                181,
                182,
                183,
                184,
                185,
                186,
                187,
                188,
                189,
                190,
                191,
                192,
                193,
                194,
                195,
                196,
                197,
                198,
                199,
                200,
                201,
                202,
                203,
                204,
                205,
                206,
                207,
                208,
                209,
                210,
                211,
                212,
                213,
                214,
                215,
                216,
                217,
                218,
                219,
                220,
                221,
                222,
                223,
                224,
                225,
                226,
                227,
                228,
                229,
                230,
                231,
                232,
                233,
                234,
                235,
                236,
                237,
                238,
                239,
                240,
                241,
                242,
                243,
                244,
                245,
                246,
                247,
                248,
                249,
                250,
                251,
                252,
                253,
                254,
                255,
                256,
                257,
                258,
                259,
                260,
                261,
                262,
                263,
                264,
                265,
                266,
                267,
                268,
                269,
                270,
                271,
                272,
                273,
                274,
                275,
                276,
                277,
                278,
                279,
                280,
                281,
                282,
                283,
                284,
                285,
                286,
                287,
                288
            ],
            "LargestImagePixelValue": [
                5647,
                4976,
                6145,
                5094,
                5806,
                5128,
                6223,
                6288,
                5834,
                5312,
                6558,
                6115,
                7207,
                6936,
                6956,
                6704,
                7609,
                7607,
                8621,
                8742,
                8148,
                6654,
                7541,
                7432,
                7995,
                7544,
                8168,
                8280,
                8583,
                8094,
                9426,
                8659,
                10181,
                10246,
                10433,
                11285,
                11321,
                12152,
                13254,
                12045,
                12817,
                12059,
                12802,
                12955,
                13980,
                13363,
                15823,
                14337,
                5056,
                4189,
                4919,
                4339,
                4459,
                4697,
                4955,
                5049,
                4381,
                4382,
                5052,
                5218,
                5691,
                5857,
                5604,
                5590,
                6053,
                6265,
                6806,
                7267,
                6383,
                5695,
                6242,
                6490,
                6597,
                6278,
                6646,
                6720,
                6584,
                6866,
                7442,
                7478,
                8544,
                8663,
                8521,
                9897,
                9752,
                10144,
                10682,
                10295,
                10509,
                10397,
                10710,
                10925,
                11621,
                11230,
                13149,
                12752,
                4060,
                4166,
                4528,
                4208,
                4314,
                4580,
                4671,
                4787,
                4219,
                4270,
                4545,
                5123,
                5479,
                5685,
                5423,
                5399,
                5715,
                5932,
                6424,
                6854,
                5963,
                5458,
                5884,
                6148,
                6268,
                6078,
                6226,
                6567,
                6376,
                6394,
                7088,
                7202,
                8041,
                8266,
                8374,
                9222,
                9182,
                9369,
                9894,
                9746,
                9713,
                9847,
                9992,
                10304,
                10645,
                10557,
                11816,
                12003,
                4272,
                4087,
                4461,
                4206,
                4262,
                4620,
                4581,
                4647,
                4127,
                4077,
                4810,
                5107,
                5400,
                5618,
                5280,
                5252,
                5651,
                5865,
                6200,
                6167,
                5964,
                5346,
                5830,
                6038,
                6062,
                6021,
                6197,
                6409,
                6292,
                6471,
                7015,
                7112,
                7802,
                8031,
                7905,
                9045,
                8888,
                9175,
                9591,
                9513,
                9485,
                9490,
                9693,
                9880,
                10507,
                10269,
                11862,
                11754,
                4048,
                4108,
                4466,
                4155,
                4265,
                4217,
                4594,
                4660,
                4064,
                4197,
                4838,
                5111,
                5408,
                5638,
                5218,
                5238,
                5609,
                5765,
                6011,
                6619,
                6008,
                5236,
                5804,
                5899,
                5846,
                6006,
                6209,
                6339,
                6378,
                6328,
                7003,
                6950,
                7707,
                8003,
                7891,
                8950,
                8860,
                9021,
                9495,
                9425,
                9436,
                9228,
                9584,
                10054,
                10318,
                10068,
                11799,
                11594,
                4449,
                4092,
                4506,
                4153,
                4209,
                4478,
                4573,
                4630,
                3992,
                4129,
                4881,
                5023,
                5400,
                5534,
                5128,
                5231,
                5523,
                5796,
                6100,
                6530,
                5587,
                5297,
                5804,
                5910,
                5637,
                6022,
                6237,
                6280,
                6265,
                6329,
                6942,
                6940,
                7683,
                7980,
                7866,
                8854,
                8682,
                9031,
                9538,
                9331,
                9354,
                9364,
                9548,
                9892,
                10194,
                10055,
                11726,
                11319
            ],
            "TriggerTime": [
                75.0,
                975.0,
                150.0,
                1050.0,
                225.0,
                1125.0,
                300.0,
                1200.0,
                375.0,
                1275.0,
                450.0,
                1350.0,
                525.0,
                1425.0,
                600.0,
                1500.0,
                675.0,
                1575.0,
                750.0,
                1650.0,
                825.0,
                1800.0,
                900.0,
                1725.0,
                75.0,
                975.0,
                150.0,
                1050.0,
                225.0,
                1125.0,
                300.0,
                1200.0,
                375.0,
                1275.0,
                450.0,
                1350.0,
                525.0,
                1425.0,
                600.0,
                1500.0,
                675.0,
                1575.0,
                750.0,
                1650.0,
                825.0,
                1800.0,
                900.0,
                1725.0,
                1875.0,
                2775.0,
                1950.0,
                2850.0,
                2025.0,
                2925.0,
                2100.0,
                3000.0,
                2175.0,
                3075.0,
                2250.0,
                3150.0,
                2325.0,
                3225.0,
                2400.0,
                3300.0,
                2475.0,
                3375.0,
                2550.0,
                3450.0,
                2625.0,
                3600.0,
                2700.0,
                3525.0,
                1875.0,
                2775.0,
                1950.0,
                2850.0,
                2025.0,
                2925.0,
                2100.0,
                3000.0,
                2175.0,
                3075.0,
                2250.0,
                3150.0,
                2325.0,
                3225.0,
                2400.0,
                3300.0,
                2475.0,
                3375.0,
                2550.0,
                3450.0,
                2625.0,
                3600.0,
                2700.0,
                3525.0,
                3675.0,
                4575.0,
                3750.0,
                4650.0,
                3825.0,
                4725.0,
                3900.0,
                4800.0,
                3975.0,
                4875.0,
                4050.0,
                4950.0,
                4125.0,
                5025.0,
                4200.0,
                5100.0,
                4275.0,
                5175.0,
                4350.0,
                5250.0,
                4425.0,
                5400.0,
                4500.0,
                5325.0,
                3675.0,
                4575.0,
                3750.0,
                4650.0,
                3825.0,
                4725.0,
                3900.0,
                4800.0,
                3975.0,
                4875.0,
                4050.0,
                4950.0,
                4125.0,
                5025.0,
                4200.0,
                5100.0,
                4275.0,
                5175.0,
                4350.0,
                5250.0,
                4425.0,
                5400.0,
                4500.0,
                5325.0,
                5475.0,
                6375.0,
                5550.0,
                6450.0,
                5625.0,
                6525.0,
                5700.0,
                6600.0,
                5775.0,
                6675.0,
                5850.0,
                6750.0,
                5925.0,
                6825.0,
                6000.0,
                6900.0,
                6075.0,
                6975.0,
                6150.0,
                7050.0,
                6225.0,
                7200.0,
                6300.0,
                7125.0,
                5475.0,
                6375.0,
                5550.0,
                6450.0,
                5625.0,
                6525.0,
                5700.0,
                6600.0,
                5775.0,
                6675.0,
                5850.0,
                6750.0,
                5925.0,
                6825.0,
                6000.0,
                6900.0,
                6075.0,
                6975.0,
                6150.0,
                7050.0,
                6225.0,
                7200.0,
                6300.0,
                7125.0,
                7275.0,
                8175.0,
                7350.0,
                8250.0,
                7425.0,
                8325.0,
                7500.0,
                8400.0,
                7575.0,
                8475.0,
                7650.0,
                8550.0,
                7725.0,
                8625.0,
                7800.0,
                8700.0,
                7875.0,
                8775.0,
                7950.0,
                8850.0,
                8025.0,
                9000.0,
                8100.0,
                8925.0,
                7275.0,
                8175.0,
                7350.0,
                8250.0,
                7425.0,
                8325.0,
                7500.0,
                8400.0,
                7575.0,
                8475.0,
                7650.0,
                8550.0,
                7725.0,
                8625.0,
                7800.0,
                8700.0,
                7875.0,
                8775.0,
                7950.0,
                8850.0,
                8025.0,
                9000.0,
                8100.0,
                8925.0,
                9075.0,
                9975.0,
                9150.0,
                10050.0,
                9225.0,
                10125.0,
                9300.0,
                10200.0,
                9375.0,
                10275.0,
                9450.0,
                10350.0,
                9525.0,
                10425.0,
                9600.0,
                10500.0,
                9675.0,
                10575.0,
                9750.0,
                10650.0,
                9825.0,
                10800.0,
                9900.0,
                10725.0,
                9075.0,
                9975.0,
                9150.0,
                10050.0,
                9225.0,
                10125.0,
                9300.0,
                10200.0,
                9375.0,
                10275.0,
                9450.0,
                10350.0,
                9525.0,
                10425.0,
                9600.0,
                10500.0,
                9675.0,
                10575.0,
                9750.0,
                10650.0,
                9825.0,
                10800.0,
                9900.0,
                10725.0
            ],
            "WindowCenter": [
                3388.0,
                2985.0,
                3687.0,
                3056.0,
                3483.0,
                3076.0,
                3733.0,
                3772.0,
                3500.0,
                3187.0,
                3934.0,
                3669.0,
                4324.0,
                4161.0,
                4173.0,
                4022.0,
                4565.0,
                4564.0,
                5172.0,
                5245.0,
                4888.0,
                3992.0,
                4524.0,
                4459.0,
                4797.0,
                4526.0,
                4900.0,
                4968.0,
                5149.0,
                4856.0,
                5655.0,
                5195.0,
                6108.0,
                6147.0,
                6259.0,
                6771.0,
                6792.0,
                7291.0,
                7952.0,
                7227.0,
                7690.0,
                7235.0,
                7681.0,
                7773.0,
                8388.0,
                8017.0,
                9493.0,
                8602.0,
                3033.0,
                2513.0,
                2951.0,
                2603.0,
                2675.0,
                2818.0,
                2973.0,
                3029.0,
                2628.0,
                2629.0,
                3031.0,
                3130.0,
                3414.0,
                3514.0,
                3362.0,
                3354.0,
                3631.0,
                3759.0,
                4083.0,
                4360.0,
                3829.0,
                3417.0,
                3745.0,
                3894.0,
                3958.0,
                3766.0,
                3987.0,
                4032.0,
                3950.0,
                4119.0,
                4465.0,
                4486.0,
                5126.0,
                5197.0,
                5112.0,
                5938.0,
                5851.0,
                6086.0,
                6409.0,
                6177.0,
                6305.0,
                6238.0,
                6426.0,
                6555.0,
                6972.0,
                6738.0,
                7889.0,
                7651.0,
                2436.0,
                2499.0,
                2716.0,
                2524.0,
                2588.0,
                2748.0,
                2802.0,
                2872.0,
                2531.0,
                2562.0,
                2727.0,
                3073.0,
                3287.0,
                3411.0,
                3253.0,
                3239.0,
                3429.0,
                3559.0,
                3854.0,
                4112.0,
                3577.0,
                3274.0,
                3530.0,
                3688.0,
                3760.0,
                3646.0,
                3735.0,
                3940.0,
                3825.0,
                3836.0,
                4252.0,
                4321.0,
                4824.0,
                4959.0,
                5024.0,
                5533.0,
                5509.0,
                5621.0,
                5936.0,
                5847.0,
                5827.0,
                5908.0,
