{
    "AcquisitionMatrixPE": 88,
    "AcquisitionNumber": 1,
    "AcquisitionTime": "08:16:0.000000",
    "BodyPartExamined": "BRAIN",
    "CoilString": "48HAP",
    "ConversionSoftware": "dcm2niix",
    "ConversionSoftwareVersion": "v1.0.20190410  GCC6.3.0",
    "DeviceSerialNumber": "0000000319335MR2",
    "EchoTime": 0.03,
    "EffectiveEchoSpacing": 0.000564,
    "FlipAngle": 75,
    "ImageOrientationPatientDICOM": [
        1,
        0,
        0,
        0,
        1,
        0
    ],
    "ImageType": [
        "ORIGINAL",
        "PRIMARY",
        "OTHER"
    ],
    "ImagingFrequency": 127.754,
    "InPlanePhaseEncodingDirectionDICOM": "COL",
    "InstitutionName": "Iowa_MRRF",
    "IntendedFor": [
        "func/sub-10003_task-ThalHi_run-001_bold.nii.gz",
        "func/sub-10003_task-ThalHi_run-002_bold.nii.gz",
        "func/sub-10003_task-ThalHi_run-003_bold.nii.gz",
        "func/sub-10003_task-ThalHi_run-004_bold.nii.gz"
    ],
    "MRAcquisitionType": "2D",
    "MagneticFieldStrength": 3,
    "Manufacturer": "GE",
    "ManufacturersModelName": "SIGNA_Premier",
    "Modality": "MR",
    "PatientPosition": "HFS",
    "PercentPhaseFOV": 100,
    "PhaseEncodingDirection": "j-",
    "PhaseEncodingPolarityGE": "Unflipped",
    "PixelBandwidth": 3906.25,
    "ProcedureStepDescription": "HWANG_NET",
    "ProtocolName": "EPI_FM_pepolar=1",
    "ReconMatrixPE": 128,
    "RepetitionTime": 1.8,
    "SAR": 0.0723851,
    "ScanOptions": "SAT_GEMS_EDR_GEMS_MP_GEMS_EPI_GEMS_HYPERBAND_GEMS_FS",
    "ScanningSequence": "EP_GR",
    "SequenceVariant": "SS",
    "SeriesDescription": "EPI_FM_pepolar=1",
    "SeriesNumber": 5,
    "SliceThickness": 2.5,
    "SliceTiming": [
        0,
        0.9,
        0.075,
        0.975,
        0.15,
        1.05,
        0.225,
        1.125,
        0.3,
        1.2,
        0.375,
        1.275,
        0.45,
        1.35,
        0.525,
        1.425,
        0.6,
        1.5,
        0.675,
        1.575,
        0.75,
        1.725,
        0.825,
        1.65,
        0,
        0.9,
        0.075,
        0.975,
        0.15,
        1.05,
        0.225,
        1.125,
        0.3,
        1.2,
        0.375,
        1.275,
        0.45,
        1.35,
        0.525,
        1.425,
        0.6,
        1.5,
        0.675,
        1.575,
        0.75,
        1.725,
        0.825,
        1.65
    ],
    "SoftwareVersions": "28_LX_MR_Software_release:RX28.0_R04_2020.b",
    "SpacingBetweenSlices": 2.5,
    "StationName": "Iowa3T",
    "TotalReadoutTime": 0.071628,
    "TriggerDelayTime": 10650,
    "dcmmeta_affine": [
        [
            -1.7187999486923218,
            0.0,
            0.0,
            106.78379821777344
        ],
        [
            0.0,
            1.7187999486923218,
            0.0,
            -122.11499786376953
        ],
        [
            0.0,
            0.0,
            2.5,
            -20.321197509765625
        ],
        [
            0.0,
            0.0,
            0.0,
            1.0
        ]
    ],
    "dcmmeta_reorient_transform": [
        [
            0.0,
            -1.0,
            0.0,
            127.0
        ],
        [
            1.0,
            0.0,
            0.0,
            0.0
        ],
        [
            0.0,
            0.0,
            -1.0,
            47.0
        ],
        [
            0.0,
            0.0,
            0.0,
            1.0
        ]
    ],
    "dcmmeta_shape": [
        128,
        128,
        48,
        6
    ],
    "dcmmeta_slice_dim": 2,
    "dcmmeta_version": 0.6,
    "global": {
        "const": {
            "AcquisitionMatrix": [
                88,
                0,
                0,
                88
            ],
            "AcquisitionNumber": 1,
            "AcquisitionTime": "081600",
            "AnatomicRegionSequence": [
                {
                    "CodeMeaning": "Brain",
                    "CodeValue": "T-A0100",
                    "CodingSchemeDesignator": "SRT"
                }
            ],
            "AngioFlag": "N",
            "BeatRejectionFlag": "Y",
            "BitsAllocated": 16,
            "BitsStored": 16,
            "BodyPartExamined": "BRAIN",
            "CardiacNumberOfImages": 0,
            "Columns": 128,
            "ContentTime": "081600",
            "EchoNumbers": 1,
            "EchoTime": 30.0,
            "EchoTrainLength": 1,
            "FlipAngle": 75.0,
            "GroupLength_0X40_0X0": 98,
            "GroupLength_0X7FE0_0X0": 32780,
            "HeartRate": 0,
            "HighBit": 15,
            "ImageOrientationPatient": [
                1.0,
                -0.0,
                0.0,
                -0.0,
                1.0,
                0.0
            ],
            "ImageType": [
                "ORIGINAL",
                "PRIMARY",
                "OTHER"
            ],
            "ImagedNucleus": "1H",
            "ImagesInAcquisition": 288,
            "ImagingFrequency": 127.753931,
            "InPlanePhaseEncodingDirection": "COL",
            "MRAcquisitionType": "2D",
            "MagneticFieldStrength": 3.0,
            "Manufacturer": "GE MEDICAL SYSTEMS",
            "ManufacturerModelName": "SIGNA Premier",
            "Modality": "MR",
            "NumberOfAverages": 1.0,
            "NumberOfTemporalPositions": 6,
            "PercentPhaseFieldOfView": 100.0,
            "PercentSampling": 100.0,
            "PerformedLocation": "Iowa",
            "PerformedProcedureStepStartTime": "080518",
            "PhotometricInterpretation": "MONOCHROME2",
            "PixelBandwidth": 3906.25,
            "PixelRepresentation": 1,
            "PixelSpacing": [
                1.7188,
                1.7188
            ],
            "ProtocolName": "HWANG_NET_THALHI",
            "ReceiveCoilName": "48HAP",
            "ReconstructionDiameter": 220.0,
            "ReferencedPerformedProcedureStepSequence": [
                {
                    "ReferencedSOPClassUID": "1.2.840.10008.3.1.2.3.3",
                    "ReferencedSOPInstanceUID": "1.2.840.113619.6.475.122217276987919435491440064915227620669"
                }
            ],
            "RepetitionTime": 1800.0,
            "Rows": 128,
            "SAR": 0.0723851,
            "SamplesPerPixel": 1,
            "ScanOptions": [
                "SAT_GEMS",
                "EDR_GEMS",
                "MP_GEMS",
                "EPI_GEMS",
                "HYPERBAND_GEMS",
                "FS"
            ],
            "ScanningSequence": [
                "EP",
                "GR"
            ],
            "SequenceVariant": "SS",
            "SeriesDescription": "EPI FM pepolar=1",
            "SeriesNumber": 5,
            "SeriesTime": "081600",
            "SliceThickness": 2.5,
            "SmallestImagePixelValue": 0,
            "SoftwareVersions": [
                "28",
                "LX",
                "MR Software release:RX28.0_R04_2020.b"
            ],
            "SpacingBetweenSlices": 2.5,
            "SpecificCharacterSet": "ISO_IR 100",
            "StackID": "1",
            "StudyID": "547",
            "StudyTime": "080541",
            "TriggerWindow": 0,
            "VariableFlipAngleFlag": "N"
        },
        "slices": {
            "InstanceNumber": [
                1,
                2,
                3,
                4,
                5,
                6,
                7,
                8,
                9,
                10,
                11,
                12,
                13,
                14,
                15,
                16,
                17,
                18,
                19,
                20,
                21,
                22,
                23,
                24,
                25,
                26,
                27,
                28,
                29,
                30,
                31,
                32,
                33,
                34,
                35,
                36,
                37,
                38,
                39,
                40,
                41,
                42,
                43,
                44,
                45,
                46,
                47,
                48,
                49,
                50,
                51,
                52,
                53,
                54,
                55,
                56,
                57,
                58,
                59,
                60,
                61,
                62,
                63,
                64,
                65,
                66,
                67,
                68,
                69,
                70,
                71,
                72,
                73,
                74,
                75,
                76,
                77,
                78,
                79,
                80,
                81,
                82,
                83,
                84,
                85,
                86,
                87,
                88,
                89,
                90,
                91,
                92,
                93,
                94,
                95,
                96,
                97,
                98,
                99,
                100,
                101,
                102,
                103,
                104,
                105,
                106,
                107,
                108,
                109,
                110,
                111,
                112,
                113,
                114,
                115,
                116,
                117,
                118,
                119,
                120,
                121,
                122,
                123,
                124,
                125,
                126,
                127,
                128,
                129,
                130,
                131,
                132,
                133,
                134,
                135,
                136,
                137,
                138,
                139,
                140,
                141,
                142,
                143,
                144,
                145,
                146,
                147,
                148,
                149,
                150,
                151,
                152,
                153,
                154,
                155,
                156,
                157,
                158,
                159,
                160,
                161,
                162,
                163,
                164,
                165,
                166,
                167,
                168,
                169,
                170,
                171,
                172,
                173,
                174,
                175,
                176,
                177,
                178,
                179,
                180,
                181,
                182,
                183,
                184,
                185,
                186,
                187,
                188,
                189,
                190,
                191,
                192,
                193,
                194,
                195,
                196,
                197,
                198,
                199,
                200,
                201,
                202,
                203,
                204,
                205,
                206,
                207,
                208,
                209,
                210,
                211,
                212,
                213,
                214,
                215,
                216,
                217,
                218,
                219,
                220,
                221,
                222,
                223,
                224,
                225,
                226,
                227,
                228,
                229,
                230,
                231,
                232,
                233,
                234,
                235,
                236,
                237,
                238,
                239,
                240,
                241,
                242,
                243,
                244,
                245,
                246,
                247,
                248,
                249,
                250,
                251,
                252,
                253,
                254,
                255,
                256,
                257,
                258,
                259,
                260,
                261,
                262,
                263,
                264,
                265,
                266,
                267,
                268,
                269,
                270,
                271,
                272,
                273,
                274,
                275,
                276,
                277,
                278,
                279,
                280,
                281,
                282,
                283,
                284,
                285,
                286,
                287,
                288
            ],
            "LargestImagePixelValue": [
                5367,
                4163,
                4963,
                4560,
                5443,
                5364,
                5396,
                4819,
                6340,
                6034,
                5979,
                5500,
                7075,
                6987,
                7395,
                6270,
                7507,
                6700,
                8100,
                6999,
                7841,
                7367,
                8491,
                7937,
                10270,
                8491,
                9106,
                8451,
                9951,
                9557,
                11262,
                9777,
                11549,
                10223,
                12425,
                10948,
                12633,
                11787,
                12527,
                12394,
                12770,
                13438,
                13198,
                13973,
                13711,
                12332,
                9278,
                2714,
                3938,
                3493,
                3733,
                3921,
                4302,
                4690,
                4277,
                4054,
                5049,
                5065,
                4853,
                4718,
                6080,
                6087,
                5973,
                5408,
                5851,
                5854,
                6565,
                6134,
                6287,
                6164,
                6752,
                7008,
                7906,
                7035,
                6944,
                6992,
                7510,
                7885,
                8751,
                8015,
                8971,
                8499,
                9855,
                8985,
                10308,
                9891,
                9947,
                10441,
                10418,
                11249,
                10971,
                11906,
                11405,
                10611,
                8038,
                2438,
                3656,
                3436,
                3698,
                3829,
                4182,
                4575,
                4110,
                3903,
                4466,
                4713,
                4421,
                4628,
                5206,
                5833,
                5751,
                5263,
                5536,
                5695,
                6031,
                6027,
                6086,
                5934,
                6488,
                6686,
                6888,
                6714,
                6595,
                6590,
                7181,
                7392,
                8145,
                7502,
                8516,
                8000,
                9107,
                8571,
                9778,
                8947,
                9212,
                9716,
                9775,
                10493,
                10226,
                11137,
                10554,
                9997,
                7289,
                2380,
                3700,
                3483,
                3553,
                3815,
                4173,
                4500,
                4123,
                3864,
                4459,
                4617,
                4436,
                5025,
                5167,
                5742,
                5658,
                5212,
                5695,
                5638,
                6339,
                6069,
                6034,
                6219,
                6439,
                6768,
                7181,
                6576,
                6393,
                6401,
                6905,
                7198,
                7920,
                7556,
                8301,
                7899,
                8912,
                8102,
                9405,
                8631,
                8989,
                9453,
                9550,
                10237,
                9990,
                10937,
                10442,
                9900,
                7145,
                2373,
                4087,
                3397,
                3558,
                3759,
                4095,
                4546,
                4032,
                3880,
                4583,
                4615,
                4359,
                4456,
                5636,
                5833,
                5362,
                5142,
                5666,
                5602,
                5925,
                6077,
                6105,
                5887,
                6339,
                6630,
                7058,
                6541,
                6378,
                6401,
                6916,
                7194,
                7792,
                7311,
                8195,
                7775,
                8816,
                8069,
                9145,
                8741,
                9081,
                9199,
                9461,
                10003,
                9878,
                10801,
                10334,
                9728,
                7148,
                2354,
                3949,
                3968,
                3471,
                3811,
                4069,
                4517,
                4009,
                3889,
                4412,
                4571,
                4298,
                4504,
                5058,
                5720,
                5582,
                5214,
                5668,
                5554,
                6309,
                6082,
                6128,
                6174,
                6310,
                6656,
                7101,
                6426,
                6390,
                6486,
                6837,
                7122,
                7778,
                7320,
                8172,
                7736,
                8758,
                8115,
                9301,
                8626,
                9041,
                9192,
                9464,
                10181,
                9710,
                10785,
                10318,
                9619,
                6220,
                2293
            ],
            "TriggerTime": [
                75.0,
                975.0,
                150.0,
                1050.0,
                225.0,
                1125.0,
                300.0,
                1200.0,
                375.0,
                1275.0,
                450.0,
                1350.0,
                525.0,
                1425.0,
                600.0,
                1500.0,
                675.0,
                1575.0,
                750.0,
                1650.0,
                825.0,
                1800.0,
                900.0,
                1725.0,
                75.0,
                975.0,
                150.0,
                1050.0,
                225.0,
                1125.0,
                300.0,
                1200.0,
                375.0,
                1275.0,
                450.0,
                1350.0,
                525.0,
                1425.0,
                600.0,
                1500.0,
                675.0,
                1575.0,
                750.0,
                1650.0,
                825.0,
                1800.0,
                900.0,
                1725.0,
                1875.0,
                2775.0,
                1950.0,
                2850.0,
                2025.0,
                2925.0,
                2100.0,
                3000.0,
                2175.0,
                3075.0,
                2250.0,
                3150.0,
                2325.0,
                3225.0,
                2400.0,
                3300.0,
                2475.0,
                3375.0,
                2550.0,
                3450.0,
                2625.0,
                3600.0,
                2700.0,
                3525.0,
                1875.0,
                2775.0,
                1950.0,
                2850.0,
                2025.0,
                2925.0,
                2100.0,
                3000.0,
                2175.0,
                3075.0,
                2250.0,
                3150.0,
                2325.0,
                3225.0,
                2400.0,
                3300.0,
                2475.0,
                3375.0,
                2550.0,
                3450.0,
                2625.0,
                3600.0,
                2700.0,
                3525.0,
                3675.0,
                4575.0,
                3750.0,
                4650.0,
                3825.0,
                4725.0,
                3900.0,
                4800.0,
                3975.0,
                4875.0,
                4050.0,
                4950.0,
                4125.0,
                5025.0,
                4200.0,
                5100.0,
                4275.0,
                5175.0,
                4350.0,
                5250.0,
                4425.0,
                5400.0,
                4500.0,
                5325.0,
                3675.0,
                4575.0,
                3750.0,
                4650.0,
                3825.0,
                4725.0,
                3900.0,
                4800.0,
                3975.0,
                4875.0,
                4050.0,
                4950.0,
                4125.0,
                5025.0,
                4200.0,
                5100.0,
                4275.0,
                5175.0,
                4350.0,
                5250.0,
                4425.0,
                5400.0,
                4500.0,
                5325.0,
                5475.0,
                6375.0,
                5550.0,
                6450.0,
                5625.0,
                6525.0,
                5700.0,
                6600.0,
                5775.0,
                6675.0,
                5850.0,
                6750.0,
                5925.0,
                6825.0,
                6000.0,
                6900.0,
                6075.0,
                6975.0,
                6150.0,
                7050.0,
                6225.0,
                7200.0,
                6300.0,
                7125.0,
                5475.0,
                6375.0,
                5550.0,
                6450.0,
                5625.0,
                6525.0,
                5700.0,
                6600.0,
                5775.0,
                6675.0,
                5850.0,
                6750.0,
                5925.0,
                6825.0,
                6000.0,
                6900.0,
                6075.0,
                6975.0,
                6150.0,
                7050.0,
                6225.0,
                7200.0,
                6300.0,
                7125.0,
                7275.0,
                8175.0,
                7350.0,
                8250.0,
                7425.0,
                8325.0,
                7500.0,
                8400.0,
                7575.0,
                8475.0,
                7650.0,
                8550.0,
                7725.0,
                8625.0,
                7800.0,
                8700.0,
                7875.0,
                8775.0,
                7950.0,
                8850.0,
                8025.0,
                9000.0,
                8100.0,
                8925.0,
                7275.0,
                8175.0,
                7350.0,
                8250.0,
                7425.0,
                8325.0,
                7500.0,
                8400.0,
                7575.0,
                8475.0,
                7650.0,
                8550.0,
                7725.0,
                8625.0,
                7800.0,
                8700.0,
                7875.0,
                8775.0,
                7950.0,
                8850.0,
                8025.0,
                9000.0,
                8100.0,
                8925.0,
                9075.0,
                9975.0,
                9150.0,
                10050.0,
                9225.0,
                10125.0,
                9300.0,
                10200.0,
                9375.0,
                10275.0,
                9450.0,
                10350.0,
                9525.0,
                10425.0,
                9600.0,
                10500.0,
                9675.0,
                10575.0,
                9750.0,
                10650.0,
                9825.0,
                10800.0,
                9900.0,
                10725.0,
                9075.0,
                9975.0,
                9150.0,
                10050.0,
                9225.0,
                10125.0,
                9300.0,
                10200.0,
                9375.0,
                10275.0,
                9450.0,
                10350.0,
                9525.0,
                10425.0,
                9600.0,
                10500.0,
                9675.0,
                10575.0,
                9750.0,
                10650.0,
                9825.0,
                10800.0,
                9900.0,
                10725.0
            ],
            "WindowCenter": [
                3220.0,
                2497.0,
                2977.0,
                2736.0,
                3265.0,
                3218.0,
                3237.0,
                2891.0,
                3804.0,
                3620.0,
                3587.0,
                3300.0,
                4245.0,
                4192.0,
                4437.0,
                3762.0,
                4504.0,
                4020.0,
                4860.0,
                4199.0,
                4704.0,
                4420.0,
                5094.0,
                4762.0,
                6162.0,
                5094.0,
                5463.0,
                5070.0,
                5970.0,
                5734.0,
                6757.0,
                5866.0,
                6929.0,
                6133.0,
                7455.0,
                6568.0,
                7579.0,
                7072.0,
                7516.0,
                7436.0,
                7662.0,
                8062.0,
                7918.0,
                8383.0,
                8226.0,
                7399.0,
                5566.0,
                1628.0,
                2362.0,
                2095.0,
                2239.0,
                2352.0,
                2581.0,
                2814.0,
                2566.0,
                2432.0,
                3029.0,
                3039.0,
                2911.0,
                2830.0,
                3648.0,
                3652.0,
                3583.0,
                3244.0,
                3510.0,
                3512.0,
                3939.0,
                3680.0,
                3772.0,
                3698.0,
                4051.0,
                4204.0,
                4743.0,
                4221.0,
                4166.0,
                4195.0,
                4506.0,
                4731.0,
                5250.0,
                4809.0,
                5382.0,
                5099.0,
                5913.0,
                5391.0,
                6184.0,
                5934.0,
                5968.0,
                6264.0,
                6250.0,
                6749.0,
                6582.0,
                7143.0,
                6843.0,
                6366.0,
                4822.0,
                1462.0,
                2193.0,
                2061.0,
                2218.0,
                2297.0,
                2509.0,
                2745.0,
                2466.0,
                2341.0,
                2679.0,
                2827.0,
                2652.0,
                2776.0,
                3123.0,
                3499.0,
                3450.0,
                3157.0,
                3321.0,
                3417.0,
                3618.0,
                3616.0,
                3651.0,
                3560.0,
                3892.0,
                4011.0,
                4132.0,
                4028.0,
                3957.0,
                3954.0,
                4308.0,
                4435.0,
                4887.0,
                4501.0,
                5109.0,
                4800.0,
                5464.0,
                5142.0,
                5866.0,
                5368.0,
                5527.0,
                5829.0,
                5865.0,
                6295.0,
