{
    "AcquisitionMatrixPE": 88,
    "AcquisitionNumber": 1,
    "AcquisitionTime": "13:54:2.000000",
    "BodyPartExamined": "BRAIN",
    "CoilString": "48HAP",
    "ConversionSoftware": "dcm2niix",
    "ConversionSoftwareVersion": "v1.0.20190410  GCC6.3.0",
    "DeviceSerialNumber": "0000000319335MR2",
    "EchoTime": 0.03,
    "EffectiveEchoSpacing": 0.000564,
    "FlipAngle": 75,
    "ImageOrientationPatientDICOM": [
        1,
        0,
        0,
        0,
        0.991458,
        0.13043
    ],
    "ImageType": [
        "ORIGINAL",
        "PRIMARY",
        "OTHER"
    ],
    "ImagingFrequency": 127.754,
    "InPlanePhaseEncodingDirectionDICOM": "COL",
    "InstitutionName": "Iowa_MRRF",
    "IntendedFor": [
        "func/sub-10169_task-ThalHi_run-001_bold.nii.gz",
        "func/sub-10169_task-ThalHi_run-002_bold.nii.gz",
        "func/sub-10169_task-ThalHi_run-003_bold.nii.gz",
        "func/sub-10169_task-ThalHi_run-004_bold.nii.gz"
    ],
    "MRAcquisitionType": "2D",
    "MagneticFieldStrength": 3,
    "Manufacturer": "GE",
    "ManufacturersModelName": "SIGNA_Premier",
    "Modality": "MR",
    "PatientPosition": "HFS",
    "PercentPhaseFOV": 100,
    "PhaseEncodingDirection": "j",
    "PhaseEncodingPolarityGE": "Flipped",
    "PixelBandwidth": 3906.25,
    "ProcedureStepDescription": "HWNAG_NET",
    "ProtocolName": "EPI_FM_pepolar=0",
    "ReconMatrixPE": 128,
    "RepetitionTime": 1.8,
    "SAR": 0.073238,
    "ScanOptions": "SAT_GEMS_EDR_GEMS_MP_GEMS_EPI_GEMS_HYPERBAND_GEMS_FS",
    "ScanningSequence": "EP_GR",
    "SequenceVariant": "SS",
    "SeriesDescription": "EPI_FM_pepolar=0",
    "SeriesNumber": 4,
    "SliceThickness": 2.5,
    "SliceTiming": [
        0,
        0.9,
        0.075,
        0.975,
        0.15,
        1.05,
        0.225,
        1.125,
        0.3,
        1.2,
        0.375,
        1.275,
        0.45,
        1.35,
        0.525,
        1.425,
        0.6,
        1.5,
        0.675,
        1.575,
        0.75,
        1.725,
        0.825,
        1.65,
        0,
        0.9,
        0.075,
        0.975,
        0.15,
        1.05,
        0.225,
        1.125,
        0.3,
        1.2,
        0.375,
        1.275,
        0.45,
        1.35,
        0.525,
        1.425,
        0.6,
        1.5,
        0.675,
        1.575,
        0.75,
        1.725,
        0.825,
        1.65
    ],
    "SoftwareVersions": "28_LX_MR_Software_release:RX28.0_R05_2035.a",
    "SpacingBetweenSlices": 2.5,
    "StationName": "Iowa3T",
    "TotalReadoutTime": 0.071628,
    "TriggerDelayTime": 10650,
    "dcmmeta_affine": [
        [
            -1.7187999486923218,
            0.0,
            0.0,
            107.38259887695312
        ],
        [
            0.0,
            1.7041172981262207,
            0.32607269287109375,
            -112.4500961303711
        ],
        [
            0.0,
            -0.22418245673179626,
            2.4786453247070312,
            -28.202978134155273
        ],
        [
            0.0,
            0.0,
            0.0,
            1.0
        ]
    ],
    "dcmmeta_reorient_transform": [
        [
            0.0,
            -1.0,
            0.0,
            127.0
        ],
        [
            1.0,
            0.0,
            0.0,
            0.0
        ],
        [
            0.0,
            0.0,
            -1.0,
            47.0
        ],
        [
            0.0,
            0.0,
            0.0,
            1.0
        ]
    ],
    "dcmmeta_shape": [
        128,
        128,
        48,
        6
    ],
    "dcmmeta_slice_dim": 2,
    "dcmmeta_version": 0.6,
    "global": {
        "const": {
            "AcquisitionMatrix": [
                88,
                0,
                0,
                88
            ],
            "AcquisitionNumber": 1,
            "AcquisitionTime": "135402",
            "AnatomicRegionSequence": [
                {
                    "CodeMeaning": "Brain",
                    "CodeValue": "T-A0100",
                    "CodingSchemeDesignator": "SRT"
                }
            ],
            "AngioFlag": "N",
            "BeatRejectionFlag": "Y",
            "BitsAllocated": 16,
            "BitsStored": 16,
            "BodyPartExamined": "BRAIN",
            "CardiacNumberOfImages": 0,
            "Columns": 128,
            "ContentTime": "135402",
            "EchoNumbers": 1,
            "EchoTime": 30.0,
            "EchoTrainLength": 1,
            "FlipAngle": 75.0,
            "GroupLength_0X40_0X0": 98,
            "GroupLength_0X7FE0_0X0": 32780,
            "HeartRate": 0,
            "HighBit": 15,
            "ImageType": [
                "ORIGINAL",
                "PRIMARY",
                "OTHER"
            ],
            "ImagedNucleus": "1H",
            "ImagesInAcquisition": 288,
            "ImagingFrequency": 127.753584,
            "InPlanePhaseEncodingDirection": "COL",
            "MRAcquisitionType": "2D",
            "MagneticFieldStrength": 3.0,
            "Manufacturer": "GE MEDICAL SYSTEMS",
            "ManufacturerModelName": "SIGNA Premier",
            "Modality": "MR",
            "NumberOfAverages": 1.0,
            "NumberOfTemporalPositions": 6,
            "PercentPhaseFieldOfView": 100.0,
            "PercentSampling": 100.0,
            "PerformedLocation": "Iowa",
            "PerformedProcedureStepStartTime": "134507",
            "PhotometricInterpretation": "MONOCHROME2",
            "PixelBandwidth": 3906.25,
            "PixelRepresentation": 1,
            "PixelSpacing": [
                1.7188,
                1.7188
            ],
            "ProtocolName": "HWANG_NET_THALHI",
            "ReceiveCoilName": "48HAP",
            "ReconstructionDiameter": 220.0,
            "ReferencedPerformedProcedureStepSequence": [
                {
                    "ReferencedSOPClassUID": "1.2.840.10008.3.1.2.3.3",
                    "ReferencedSOPInstanceUID": "1.2.840.113619.6.475.3049196835518880796811817323701465695"
                }
            ],
            "RepetitionTime": 1800.0,
            "Rows": 128,
            "SAR": 0.073238,
            "SamplesPerPixel": 1,
            "ScanOptions": [
                "SAT_GEMS",
                "EDR_GEMS",
                "MP_GEMS",
                "EPI_GEMS",
                "HYPERBAND_GEMS",
                "FS"
            ],
            "ScanningSequence": [
                "EP",
                "GR"
            ],
            "SequenceVariant": "SS",
            "SeriesDescription": "EPI FM pepolar=0",
            "SeriesNumber": 4,
            "SeriesTime": "135402",
            "SliceThickness": 2.5,
            "SmallestImagePixelValue": 0,
            "SoftwareVersions": [
                "28",
                "LX",
                "MR Software release:RX28.0_R05_2035.a"
            ],
            "SpacingBetweenSlices": 2.5,
            "SpecificCharacterSet": "ISO_IR 100",
            "StackID": "1",
            "StudyID": "2524",
            "StudyTime": "134513",
            "TriggerWindow": 0,
            "VariableFlipAngleFlag": "N"
        },
        "slices": {
            "InstanceNumber": [
                1,
                2,
                3,
                4,
                5,
                6,
                7,
                8,
                9,
                10,
                11,
                12,
                13,
                14,
                15,
                16,
                17,
                18,
                19,
                20,
                21,
                22,
                23,
                24,
                25,
                26,
                27,
                28,
                29,
                30,
                31,
                32,
                33,
                34,
                35,
                36,
                37,
                38,
                39,
                40,
                41,
                42,
                43,
                44,
                45,
                46,
                47,
                48,
                49,
                50,
                51,
                52,
                53,
                54,
                55,
                56,
                57,
                58,
                59,
                60,
                61,
                62,
                63,
                64,
                65,
                66,
                67,
                68,
                69,
                70,
                71,
                72,
                73,
                74,
                75,
                76,
                77,
                78,
                79,
                80,
                81,
                82,
                83,
                84,
                85,
                86,
                87,
                88,
                89,
                90,
                91,
                92,
                93,
                94,
                95,
                96,
                97,
                98,
                99,
                100,
                101,
                102,
                103,
                104,
                105,
                106,
                107,
                108,
                109,
                110,
                111,
                112,
                113,
                114,
                115,
                116,
                117,
                118,
                119,
                120,
                121,
                122,
                123,
                124,
                125,
                126,
                127,
                128,
                129,
                130,
                131,
                132,
                133,
                134,
                135,
                136,
                137,
                138,
                139,
                140,
                141,
                142,
                143,
                144,
                145,
                146,
                147,
                148,
                149,
                150,
                151,
                152,
                153,
                154,
                155,
                156,
                157,
                158,
                159,
                160,
                161,
                162,
                163,
                164,
                165,
                166,
                167,
                168,
                169,
                170,
                171,
                172,
                173,
                174,
                175,
                176,
                177,
                178,
                179,
                180,
                181,
                182,
                183,
                184,
                185,
                186,
                187,
                188,
                189,
                190,
                191,
                192,
                193,
                194,
                195,
                196,
                197,
                198,
                199,
                200,
                201,
                202,
                203,
                204,
                205,
                206,
                207,
                208,
                209,
                210,
                211,
                212,
                213,
                214,
                215,
                216,
                217,
                218,
                219,
                220,
                221,
                222,
                223,
                224,
                225,
                226,
                227,
                228,
                229,
                230,
                231,
                232,
                233,
                234,
                235,
                236,
                237,
                238,
                239,
                240,
                241,
                242,
                243,
                244,
                245,
                246,
                247,
                248,
                249,
                250,
                251,
                252,
                253,
                254,
                255,
                256,
                257,
                258,
                259,
                260,
                261,
                262,
                263,
                264,
                265,
                266,
                267,
                268,
                269,
                270,
                271,
                272,
                273,
                274,
                275,
                276,
                277,
                278,
                279,
                280,
                281,
                282,
                283,
                284,
                285,
                286,
                287,
                288
            ],
            "LargestImagePixelValue": [
                6166,
                4950,
                5347,
                5320,
                7343,
                7482,
                7540,
                7683,
                7896,
                7093,
                6705,
                5463,
                6287,
                5373,
                6501,
                5722,
                7248,
                6278,
                6603,
                6828,
                6964,
                6670,
                7915,
                7974,
                8607,
                8140,
                9020,
                9818,
                9447,
                9868,
                10807,
                11495,
                11576,
                10735,
                11052,
                11100,
                11304,
                11151,
                11483,
                11358,
                11859,
                12665,
                14035,
                13530,
                13260,
                13474,
                12850,
                9388,
                4925,
                3811,
                4182,
                4643,
                6118,
                6205,
                6194,
                6484,
                6349,
                5925,
                5657,
                4406,
                4994,
                4742,
                5109,
                4826,
                5742,
                5049,
                5115,
                5571,
                5692,
                5748,
                6213,
                6617,
                6864,
                6704,
                7317,
                8497,
                8180,
                8687,
                9333,
                9837,
                10022,
                9285,
                9897,
                9543,
                9657,
                9069,
                9570,
                9494,
                9959,
                10605,
                11655,
                11480,
                11196,
                11352,
                10789,
                7830,
                4426,
                3750,
                4022,
                4646,
                5606,
                5713,
                5857,
                5911,
                5952,
                5367,
                5061,
                4280,
                4786,
                4668,
                4764,
                4721,
                5432,
                4999,
                4945,
                5077,
                5527,
                5574,
                5934,
                6282,
                6528,
                6361,
                7036,
                8065,
                7619,
                8129,
                8869,
                9408,
                9290,
                8752,
                8800,
                8983,
                8951,
                8704,
                8836,
                8800,
                9196,
                9992,
                10672,
                10533,
                10199,
                10809,
                9804,
                7305,
                4139,
                3791,
                3945,
                4374,
                5257,
                5193,
                5532,
                5479,
                5481,
                4793,
                4424,
                4335,
                4717,
                4595,
                4728,
                4782,
                5431,
                4960,
                4935,
                5163,
                5422,
                5534,
                5892,
                6208,
                6226,
                6226,
                6389,
                7872,
                7366,
                7865,
                8419,
                8989,
                9501,
                8485,
                8854,
                8331,
                8791,
                8522,
                8636,
                8650,
                8965,
                9695,
                10401,
                10364,
                10009,
                10417,
                9722,
                7265,
                4247,
                3719,
                4014,
                4239,
                5029,
                4950,
                5349,
                5393,
                5246,
                4682,
                4431,
                4324,
                4715,
                4532,
                4758,
                4734,
                5322,
                4923,
                4944,
                5043,
                5333,
                5589,
                5535,
                6187,
                6216,
                6161,
                6690,
                7709,
                7287,
                7740,
                8438,
                9089,
                9088,
                8411,
                8845,
                8633,
                8674,
                8485,
                8497,
                8401,
                8844,
                9600,
                10284,
                10346,
                9981,
                10292,
                9642,
                7188,
                4157,
                4059,
                3982,
                4395,
                5015,
                4815,
                5103,
                5376,
                5178,
                4584,
                4383,
                4248,
                4740,
                4515,
                4733,
                4720,
                5334,
                5036,
                4900,
                5082,
                5355,
                5537,
                5828,
                6152,
                6109,
                6158,
                6609,
                7631,
                7224,
                7713,
                8312,
                9031,
                8881,
                8318,
                8403,
                8635,
                8612,
                8469,
                8528,
                8568,
                8625,
                9558,
                10124,
                10072,
                10081,
                10290,
                9472,
                7194
            ],
            "TriggerTime": [
                75.0,
                975.0,
                150.0,
                1050.0,
                225.0,
                1125.0,
                300.0,
                1200.0,
                375.0,
                1275.0,
                450.0,
                1350.0,
                525.0,
                1425.0,
                600.0,
                1500.0,
                675.0,
                1575.0,
                750.0,
                1650.0,
                825.0,
                1800.0,
                900.0,
                1725.0,
                75.0,
                975.0,
                150.0,
                1050.0,
                225.0,
                1125.0,
                300.0,
                1200.0,
                375.0,
                1275.0,
                450.0,
                1350.0,
                525.0,
                1425.0,
                600.0,
                1500.0,
                675.0,
                1575.0,
                750.0,
                1650.0,
                825.0,
                1800.0,
                900.0,
                1725.0,
                1875.0,
                2775.0,
                1950.0,
                2850.0,
                2025.0,
                2925.0,
                2100.0,
                3000.0,
                2175.0,
                3075.0,
                2250.0,
                3150.0,
                2325.0,
                3225.0,
                2400.0,
                3300.0,
                2475.0,
                3375.0,
                2550.0,
                3450.0,
                2625.0,
                3600.0,
                2700.0,
                3525.0,
                1875.0,
                2775.0,
                1950.0,
                2850.0,
                2025.0,
                2925.0,
                2100.0,
                3000.0,
                2175.0,
                3075.0,
                2250.0,
                3150.0,
                2325.0,
                3225.0,
                2400.0,
                3300.0,
                2475.0,
                3375.0,
                2550.0,
                3450.0,
                2625.0,
                3600.0,
                2700.0,
                3525.0,
                3675.0,
                4575.0,
                3750.0,
                4650.0,
                3825.0,
                4725.0,
                3900.0,
                4800.0,
                3975.0,
                4875.0,
                4050.0,
                4950.0,
                4125.0,
                5025.0,
                4200.0,
                5100.0,
                4275.0,
                5175.0,
                4350.0,
                5250.0,
                4425.0,
                5400.0,
                4500.0,
                5325.0,
                3675.0,
                4575.0,
                3750.0,
                4650.0,
                3825.0,
                4725.0,
                3900.0,
                4800.0,
                3975.0,
                4875.0,
                4050.0,
                4950.0,
                4125.0,
                5025.0,
                4200.0,
                5100.0,
                4275.0,
                5175.0,
                4350.0,
                5250.0,
                4425.0,
                5400.0,
                4500.0,
                5325.0,
                5475.0,
                6375.0,
                5550.0,
                6450.0,
                5625.0,
                6525.0,
                5700.0,
                6600.0,
                5775.0,
                6675.0,
                5850.0,
                6750.0,
                5925.0,
                6825.0,
                6000.0,
                6900.0,
                6075.0,
                6975.0,
                6150.0,
                7050.0,
                6225.0,
                7200.0,
                6300.0,
                7125.0,
                5475.0,
                6375.0,
                5550.0,
                6450.0,
                5625.0,
                6525.0,
                5700.0,
                6600.0,
                5775.0,
                6675.0,
                5850.0,
                6750.0,
                5925.0,
                6825.0,
                6000.0,
                6900.0,
                6075.0,
                6975.0,
                6150.0,
                7050.0,
                6225.0,
                7200.0,
                6300.0,
                7125.0,
                7275.0,
                8175.0,
                7350.0,
                8250.0,
                7425.0,
                8325.0,
                7500.0,
                8400.0,
                7575.0,
                8475.0,
                7650.0,
                8550.0,
                7725.0,
                8625.0,
                7800.0,
                8700.0,
                7875.0,
                8775.0,
                7950.0,
                8850.0,
                8025.0,
                9000.0,
                8100.0,
                8925.0,
                7275.0,
                8175.0,
                7350.0,
                8250.0,
                7425.0,
                8325.0,
                7500.0,
                8400.0,
                7575.0,
                8475.0,
                7650.0,
                8550.0,
                7725.0,
                8625.0,
                7800.0,
                8700.0,
                7875.0,
                8775.0,
                7950.0,
                8850.0,
                8025.0,
                9000.0,
                8100.0,
                8925.0,
                9075.0,
                9975.0,
                9150.0,
                10050.0,
                9225.0,
                10125.0,
                9300.0,
                10200.0,
                9375.0,
                10275.0,
                9450.0,
                10350.0,
                9525.0,
                10425.0,
                9600.0,
                10500.0,
                9675.0,
                10575.0,
                9750.0,
                10650.0,
                9825.0,
                10800.0,
                9900.0,
                10725.0,
                9075.0,
                9975.0,
                9150.0,
                10050.0,
                9225.0,
                10125.0,
                9300.0,
                10200.0,
                9375.0,
                10275.0,
                9450.0,
                10350.0,
                9525.0,
                10425.0,
                9600.0,
                10500.0,
                9675.0,
                10575.0,
                9750.0,
                10650.0,
                9825.0,
                10800.0,
                9900.0,
                10725.0
            ],
            "WindowCenter": [
                3699.0,
                2970.0,
                3208.0,
                3192.0,
                4405.0,
                4489.0,
                4524.0,
                4609.0,
                4737.0,
                4255.0,
                4023.0,
                3277.0,
                3772.0,
                3223.0,
                3900.0,
                3433.0,
                4348.0,
                3766.0,
                3961.0,
                4096.0,
                4178.0,
                4002.0,
                4749.0,
                4784.0,
                5164.0,
                4884.0,
                5412.0,
                5890.0,
                5668.0,
                5920.0,
                6484.0,
                6897.0,
                6945.0,
                6441.0,
                6631.0,
                6660.0,
                6782.0,
                6690.0,
                6889.0,
                6814.0,
                7115.0,
                7599.0,
                8421.0,
                8118.0,
                7956.0,
                8084.0,
                7710.0,
                5632.0,
                2955.0,
                2286.0,
                2509.0,
                2785.0,
                3670.0,
                3723.0,
                3716.0,
                3890.0,
                3809.0,
                3555.0,
                3394.0,
                2643.0,
                2996.0,
                2845.0,
                3065.0,
                2895.0,
                3445.0,
                3029.0,
                3069.0,
                3342.0,
                3415.0,
                3448.0,
                3727.0,
                3970.0,
                4118.0,
                4022.0,
                4390.0,
                5098.0,
                4908.0,
                5212.0,
                5599.0,
                5902.0,
                6013.0,
                5571.0,
                5938.0,
                5725.0,
                5794.0,
                5441.0,
                5742.0,
                5696.0,
                5975.0,
                6363.0,
                6993.0,
                6888.0,
                6717.0,
                6811.0,
                6473.0,
                4698.0,
                2655.0,
                2250.0,
                2413.0,
                2787.0,
                3363.0,
                3427.0,
                3514.0,
                3546.0,
                3571.0,
                3220.0,
                3036.0,
                2568.0,
                2871.0,
                2800.0,
                2858.0,
                2832.0,
                3259.0,
                2999.0,
                2967.0,
                3046.0,
                3316.0,
                3344.0,
                3560.0,
                3769.0,
                3916.0,
                3816.0,
                4221.0,
                4839.0,
                4571.0,
                4877.0,
                5321.0,
                5644.0,
                5574.0,
                5251.0,
                5280.0,
                5389.0,
                5370.0,
                5222.0,
                5301.0,
                5280.0,
                5517.0,
                5995.0,
                6403.0,
                6319.0,
                6119.0,
                6485.0,
                5882.0,
