{
    "AcquisitionMatrixPE": 88,
    "AcquisitionNumber": 1,
    "AcquisitionTime": "13:13:23.000000",
    "BodyPartExamined": "BRAIN",
    "CoilString": "48HAP",
    "ConversionSoftware": "dcm2niix",
    "ConversionSoftwareVersion": "v1.0.20190410  GCC6.3.0",
    "DeviceSerialNumber": "0000000319335MR2",
    "EchoTime": 0.03,
    "EffectiveEchoSpacing": 0.000564,
    "FlipAngle": 75,
    "ImageOrientationPatientDICOM": [
        1,
        0,
        0,
        0,
        0.998576,
        -0.0533561
    ],
    "ImageType": [
        "ORIGINAL",
        "PRIMARY",
        "OTHER"
    ],
    "ImagingFrequency": 127.754,
    "InPlanePhaseEncodingDirectionDICOM": "COL",
    "InstitutionName": "Iowa_MRRF",
    "IntendedFor": [
        "func/sub-10066_task-ThalHi_run-005_bold.nii.gz",
        "func/sub-10066_task-ThalHi_run-006_bold.nii.gz",
        "func/sub-10066_task-ThalHi_run-007_bold.nii.gz",
        "func/sub-10066_task-ThalHi_run-008_bold.nii.gz"
    ],
    "MRAcquisitionType": "2D",
    "MagneticFieldStrength": 3,
    "Manufacturer": "GE",
    "ManufacturersModelName": "SIGNA_Premier",
    "Modality": "MR",
    "PatientPosition": "HFS",
    "PercentPhaseFOV": 100,
    "PhaseEncodingDirection": "j-",
    "PhaseEncodingPolarityGE": "Unflipped",
    "PixelBandwidth": 3906.25,
    "ProcedureStepDescription": "HWANG_NET",
    "ProtocolName": "EPI_FM_pepolar=1",
    "ReconMatrixPE": 128,
    "RepetitionTime": 1.8,
    "SAR": 0.0886721,
    "ScanOptions": "SAT_GEMS_EDR_GEMS_MP_GEMS_EPI_GEMS_HYPERBAND_GEMS_FS",
    "ScanningSequence": "EP_GR",
    "SequenceVariant": "SS",
    "SeriesDescription": "EPI_FM_pepolar=1",
    "SeriesNumber": 11,
    "SliceThickness": 2.5,
    "SliceTiming": [
        0,
        0.9,
        0.075,
        0.975,
        0.15,
        1.05,
        0.225,
        1.125,
        0.3,
        1.2,
        0.375,
        1.275,
        0.45,
        1.35,
        0.525,
        1.425,
        0.6,
        1.5,
        0.675,
        1.575,
        0.75,
        1.725,
        0.825,
        1.65,
        0,
        0.9,
        0.075,
        0.975,
        0.15,
        1.05,
        0.225,
        1.125,
        0.3,
        1.2,
        0.375,
        1.275,
        0.45,
        1.35,
        0.525,
        1.425,
        0.6,
        1.5,
        0.675,
        1.575,
        0.75,
        1.725,
        0.825,
        1.65
    ],
    "SoftwareVersions": "28_LX_MR_Software_release:RX28.0_R05_2035.a",
    "SpacingBetweenSlices": 2.5,
    "StationName": "Iowa3T",
    "TotalReadoutTime": 0.071628,
    "TriggerDelayTime": 10650,
    "dcmmeta_affine": [
        [
            -1.7187999486923218,
            0.0,
            0.0,
            111.48460388183594
        ],
        [
            0.0,
            1.7163516283035278,
            -0.13338470458984375,
            -108.68058013916016
        ],
        [
            0.0,
            0.0917084664106369,
            2.4964370727539062,
            -48.87605667114258
        ],
        [
            0.0,
            0.0,
            0.0,
            1.0
        ]
    ],
    "dcmmeta_reorient_transform": [
        [
            0.0,
            -1.0,
            0.0,
            127.0
        ],
        [
            1.0,
            0.0,
            0.0,
            0.0
        ],
        [
            0.0,
            0.0,
            -1.0,
            47.0
        ],
        [
            0.0,
            0.0,
            0.0,
            1.0
        ]
    ],
    "dcmmeta_shape": [
        128,
        128,
        48,
        6
    ],
    "dcmmeta_slice_dim": 2,
    "dcmmeta_version": 0.6,
    "global": {
        "const": {
            "AcquisitionMatrix": [
                88,
                0,
                0,
                88
            ],
            "AcquisitionNumber": 1,
            "AcquisitionTime": "131323",
            "AnatomicRegionSequence": [
                {
                    "CodeMeaning": "Brain",
                    "CodeValue": "T-A0100",
                    "CodingSchemeDesignator": "SRT"
                }
            ],
            "AngioFlag": "N",
            "BeatRejectionFlag": "Y",
            "BitsAllocated": 16,
            "BitsStored": 16,
            "BodyPartExamined": "BRAIN",
            "CardiacNumberOfImages": 0,
            "Columns": 128,
            "ContentTime": "131323",
            "EchoNumbers": 1,
            "EchoTime": 30.0,
            "EchoTrainLength": 1,
            "FlipAngle": 75.0,
            "GroupLength_0X40_0X0": 98,
            "GroupLength_0X7FE0_0X0": 32780,
            "HeartRate": 0,
            "HighBit": 15,
            "ImageType": [
                "ORIGINAL",
                "PRIMARY",
                "OTHER"
            ],
            "ImagedNucleus": "1H",
            "ImagesInAcquisition": 288,
            "ImagingFrequency": 127.7535,
            "InPlanePhaseEncodingDirection": "COL",
            "MRAcquisitionType": "2D",
            "MagneticFieldStrength": 3.0,
            "Manufacturer": "GE MEDICAL SYSTEMS",
            "ManufacturerModelName": "SIGNA Premier",
            "Modality": "MR",
            "NumberOfAverages": 1.0,
            "NumberOfTemporalPositions": 6,
            "PercentPhaseFieldOfView": 100.0,
            "PercentSampling": 100.0,
            "PerformedLocation": "Iowa",
            "PerformedProcedureStepStartTime": "123335",
            "PhotometricInterpretation": "MONOCHROME2",
            "PixelBandwidth": 3906.25,
            "PixelRepresentation": 1,
            "PixelSpacing": [
                1.7188,
                1.7188
            ],
            "ProtocolName": "HWANG_NET_THALHI",
            "ReceiveCoilName": "48HAP",
            "ReconstructionDiameter": 220.0,
            "ReferencedPerformedProcedureStepSequence": [
                {
                    "ReferencedSOPClassUID": "1.2.840.10008.3.1.2.3.3",
                    "ReferencedSOPInstanceUID": "1.2.840.113619.6.475.86404054559388630471343190519625294894"
                }
            ],
            "RepetitionTime": 1800.0,
            "Rows": 128,
            "SAR": 0.0886721,
            "SamplesPerPixel": 1,
            "ScanOptions": [
                "SAT_GEMS",
                "EDR_GEMS",
                "MP_GEMS",
                "EPI_GEMS",
                "HYPERBAND_GEMS",
                "FS"
            ],
            "ScanningSequence": [
                "EP",
                "GR"
            ],
            "SequenceVariant": "SS",
            "SeriesDescription": "EPI FM pepolar=1",
            "SeriesNumber": 11,
            "SeriesTime": "131323",
            "SliceThickness": 2.5,
            "SmallestImagePixelValue": 0,
            "SoftwareVersions": [
                "28",
                "LX",
                "MR Software release:RX28.0_R05_2035.a"
            ],
            "SpacingBetweenSlices": 2.5,
            "SpecificCharacterSet": "ISO_IR 100",
            "StackID": "1",
            "StudyID": "2042",
            "StudyTime": "123341",
            "TriggerWindow": 0,
            "VariableFlipAngleFlag": "N"
        },
        "slices": {
            "InstanceNumber": [
                1,
                2,
                3,
                4,
                5,
                6,
                7,
                8,
                9,
                10,
                11,
                12,
                13,
                14,
                15,
                16,
                17,
                18,
                19,
                20,
                21,
                22,
                23,
                24,
                25,
                26,
                27,
                28,
                29,
                30,
                31,
                32,
                33,
                34,
                35,
                36,
                37,
                38,
                39,
                40,
                41,
                42,
                43,
                44,
                45,
                46,
                47,
                48,
                49,
                50,
                51,
                52,
                53,
                54,
                55,
                56,
                57,
                58,
                59,
                60,
                61,
                62,
                63,
                64,
                65,
                66,
                67,
                68,
                69,
                70,
                71,
                72,
                73,
                74,
                75,
                76,
                77,
                78,
                79,
                80,
                81,
                82,
                83,
                84,
                85,
                86,
                87,
                88,
                89,
                90,
                91,
                92,
                93,
                94,
                95,
                96,
                97,
                98,
                99,
                100,
                101,
                102,
                103,
                104,
                105,
                106,
                107,
                108,
                109,
                110,
                111,
                112,
                113,
                114,
                115,
                116,
                117,
                118,
                119,
                120,
                121,
                122,
                123,
                124,
                125,
                126,
                127,
                128,
                129,
                130,
                131,
                132,
                133,
                134,
                135,
                136,
                137,
                138,
                139,
                140,
                141,
                142,
                143,
                144,
                145,
                146,
                147,
                148,
                149,
                150,
                151,
                152,
                153,
                154,
                155,
                156,
                157,
                158,
                159,
                160,
                161,
                162,
                163,
                164,
                165,
                166,
                167,
                168,
                169,
                170,
                171,
                172,
                173,
                174,
                175,
                176,
                177,
                178,
                179,
                180,
                181,
                182,
                183,
                184,
                185,
                186,
                187,
                188,
                189,
                190,
                191,
                192,
                193,
                194,
                195,
                196,
                197,
                198,
                199,
                200,
                201,
                202,
                203,
                204,
                205,
                206,
                207,
                208,
                209,
                210,
                211,
                212,
                213,
                214,
                215,
                216,
                217,
                218,
                219,
                220,
                221,
                222,
                223,
                224,
                225,
                226,
                227,
                228,
                229,
                230,
                231,
                232,
                233,
                234,
                235,
                236,
                237,
                238,
                239,
                240,
                241,
                242,
                243,
                244,
                245,
                246,
                247,
                248,
                249,
                250,
                251,
                252,
                253,
                254,
                255,
                256,
                257,
                258,
                259,
                260,
                261,
                262,
                263,
                264,
                265,
                266,
                267,
                268,
                269,
                270,
                271,
                272,
                273,
                274,
                275,
                276,
                277,
                278,
                279,
                280,
                281,
                282,
                283,
                284,
                285,
                286,
                287,
                288
            ],
            "LargestImagePixelValue": [
                4868,
                4149,
                4684,
                4714,
                5154,
                4479,
                4958,
                4759,
                5286,
                4694,
                5454,
                5129,
                5085,
                4721,
                5850,
                5228,
                5761,
                5261,
                6239,
                6017,
                6836,
                6627,
                6904,
                6601,
                7806,
                7054,
                7475,
                6608,
                7377,
                6905,
                7776,
                7230,
                7382,
                7405,
                7694,
                7924,
                9390,
                9779,
                8881,
                9246,
                9604,
                9668,
                11693,
                10094,
                9875,
                9299,
                10502,
                10422,
                4479,
                3527,
                3671,
                4023,
                4062,
                3880,
                4399,
                3641,
                4325,
                4139,
                4278,
                4195,
                4256,
                4044,
                4775,
                4520,
                4718,
                4651,
                4993,
                5327,
                5293,
                5311,
                5563,
                5790,
                6189,
                6004,
                5850,
                5601,
                5856,
                5839,
                6884,
                6284,
                6339,
                6241,
                6296,
                6558,
                7746,
                8244,
                7439,
                7807,
                8164,
                8604,
                9975,
                8657,
                8448,
                8233,
                9680,
                9147,
                3924,
                3341,
                3548,
                3976,
                3939,
                3749,
                4156,
                3645,
                3963,
                4028,
                4154,
                4098,
                3953,
                3969,
                4530,
                4487,
                4552,
                4533,
                4872,
                5179,
                5070,
                5011,
                5292,
                5577,
                5738,
                5822,
                5513,
                5435,
                5591,
                5754,
                6584,
                5977,
                5926,
                5940,
                5999,
                6232,
                7161,
                7688,
                6926,
                7215,
                7706,
                8240,
                9388,
                7885,
                7950,
                7767,
                9068,
                8613,
                3902,
                3402,
                3507,
                3890,
                3890,
                3710,
                3760,
                3610,
                3945,
                4015,
                4098,
                4057,
                3841,
                4000,
                4507,
                4452,
                4536,
                4580,
                4809,
                5172,
                5053,
                5046,
                5218,
                5509,
                5701,
                5796,
                5492,
                5390,
                5440,
                5713,
                6395,
                5929,
                5807,
                5851,
                5880,
                6141,
                7056,
                7543,
                6534,
                7103,
                7658,
                8086,
                9135,
                8103,
                7763,
                7560,
                8836,
                8542,
                3725,
                3316,
                3563,
                3937,
                3826,
                3686,
                3745,
                3539,
                3873,
                4078,
                4067,
                3999,
                3788,
                3967,
                4590,
                4431,
                4497,
                4585,
                4808,
                5197,
                5066,
                4994,
                5231,
                5501,
                5376,
                5799,
                5495,
                5359,
                5483,
                5741,
                6292,
                5874,
                5849,
                5804,
                5864,
                6056,
                7038,
                7475,
                6689,
                7045,
                7356,
                7682,
                9017,
                8037,
                7755,
                7451,
                8708,
                8531,
                3950,
                3387,
                3504,
                3915,
                3888,
                3691,
                3753,
                3589,
                3913,
                4074,
                4025,
                4006,
                3874,
                3964,
                4497,
                4441,
                4501,
                4485,
                4763,
                5197,
                5101,
                5050,
                5125,
                5531,
                5604,
                5813,
                5465,
                5397,
                5436,
                5684,
                6244,
                5823,
                5761,
                5864,
                5843,
                6033,
                6951,
                7392,
                6613,
                7053,
                7574,
                7970,
                9052,
                7580,
                7703,
                7470,
                8688,
                8511
            ],
            "TriggerTime": [
                75.0,
                975.0,
                150.0,
                1050.0,
                225.0,
                1125.0,
                300.0,
                1200.0,
                375.0,
                1275.0,
                450.0,
                1350.0,
                525.0,
                1425.0,
                600.0,
                1500.0,
                675.0,
                1575.0,
                750.0,
                1650.0,
                825.0,
                1800.0,
                900.0,
                1725.0,
                75.0,
                975.0,
                150.0,
                1050.0,
                225.0,
                1125.0,
                300.0,
                1200.0,
                375.0,
                1275.0,
                450.0,
                1350.0,
                525.0,
                1425.0,
                600.0,
                1500.0,
                675.0,
                1575.0,
                750.0,
                1650.0,
                825.0,
                1800.0,
                900.0,
                1725.0,
                1875.0,
                2775.0,
                1950.0,
                2850.0,
                2025.0,
                2925.0,
                2100.0,
                3000.0,
                2175.0,
                3075.0,
                2250.0,
                3150.0,
                2325.0,
                3225.0,
                2400.0,
                3300.0,
                2475.0,
                3375.0,
                2550.0,
                3450.0,
                2625.0,
                3600.0,
                2700.0,
                3525.0,
                1875.0,
                2775.0,
                1950.0,
                2850.0,
                2025.0,
                2925.0,
                2100.0,
                3000.0,
                2175.0,
                3075.0,
                2250.0,
                3150.0,
                2325.0,
                3225.0,
                2400.0,
                3300.0,
                2475.0,
                3375.0,
                2550.0,
                3450.0,
                2625.0,
                3600.0,
                2700.0,
                3525.0,
                3675.0,
                4575.0,
                3750.0,
                4650.0,
                3825.0,
                4725.0,
                3900.0,
                4800.0,
                3975.0,
                4875.0,
                4050.0,
                4950.0,
                4125.0,
                5025.0,
                4200.0,
                5100.0,
                4275.0,
                5175.0,
                4350.0,
                5250.0,
                4425.0,
                5400.0,
                4500.0,
                5325.0,
                3675.0,
                4575.0,
                3750.0,
                4650.0,
                3825.0,
                4725.0,
                3900.0,
                4800.0,
                3975.0,
                4875.0,
                4050.0,
                4950.0,
                4125.0,
                5025.0,
                4200.0,
                5100.0,
                4275.0,
                5175.0,
                4350.0,
                5250.0,
                4425.0,
                5400.0,
                4500.0,
                5325.0,
                5475.0,
                6375.0,
                5550.0,
                6450.0,
                5625.0,
                6525.0,
                5700.0,
                6600.0,
                5775.0,
                6675.0,
                5850.0,
                6750.0,
                5925.0,
                6825.0,
                6000.0,
                6900.0,
                6075.0,
                6975.0,
                6150.0,
                7050.0,
                6225.0,
                7200.0,
                6300.0,
                7125.0,
                5475.0,
                6375.0,
                5550.0,
                6450.0,
                5625.0,
                6525.0,
                5700.0,
                6600.0,
                5775.0,
                6675.0,
                5850.0,
                6750.0,
                5925.0,
                6825.0,
                6000.0,
                6900.0,
                6075.0,
                6975.0,
                6150.0,
                7050.0,
                6225.0,
                7200.0,
                6300.0,
                7125.0,
                7275.0,
                8175.0,
                7350.0,
                8250.0,
                7425.0,
                8325.0,
                7500.0,
                8400.0,
                7575.0,
                8475.0,
                7650.0,
                8550.0,
                7725.0,
                8625.0,
                7800.0,
                8700.0,
                7875.0,
                8775.0,
                7950.0,
                8850.0,
                8025.0,
                9000.0,
                8100.0,
                8925.0,
                7275.0,
                8175.0,
                7350.0,
                8250.0,
                7425.0,
                8325.0,
                7500.0,
                8400.0,
                7575.0,
                8475.0,
                7650.0,
                8550.0,
                7725.0,
                8625.0,
                7800.0,
                8700.0,
                7875.0,
                8775.0,
                7950.0,
                8850.0,
                8025.0,
                9000.0,
                8100.0,
                8925.0,
                9075.0,
                9975.0,
                9150.0,
                10050.0,
                9225.0,
                10125.0,
                9300.0,
                10200.0,
                9375.0,
                10275.0,
                9450.0,
                10350.0,
                9525.0,
                10425.0,
                9600.0,
                10500.0,
                9675.0,
                10575.0,
                9750.0,
                10650.0,
                9825.0,
                10800.0,
                9900.0,
                10725.0,
                9075.0,
                9975.0,
                9150.0,
                10050.0,
                9225.0,
                10125.0,
                9300.0,
                10200.0,
                9375.0,
                10275.0,
                9450.0,
                10350.0,
                9525.0,
                10425.0,
                9600.0,
                10500.0,
                9675.0,
                10575.0,
                9750.0,
                10650.0,
                9825.0,
                10800.0,
                9900.0,
                10725.0
            ],
            "WindowCenter": [
                2920.0,
                2489.0,
                2810.0,
                2828.0,
                3092.0,
                2687.0,
                2974.0,
                2855.0,
                3171.0,
                2816.0,
                3272.0,
                3077.0,
                3051.0,
                2832.0,
                3510.0,
                3136.0,
                3456.0,
                3156.0,
                3743.0,
                3610.0,
                4101.0,
                3976.0,
                4142.0,
                3960.0,
                4683.0,
                4232.0,
                4485.0,
                3964.0,
                4426.0,
                4143.0,
                4665.0,
                4338.0,
                4429.0,
                4443.0,
                4616.0,
                4754.0,
                5634.0,
                5867.0,
                5328.0,
                5547.0,
                5762.0,
                5800.0,
                7015.0,
                6056.0,
                5925.0,
                5579.0,
                6301.0,
                6253.0,
                2687.0,
                2116.0,
                2202.0,
                2413.0,
                2437.0,
                2328.0,
                2639.0,
                2184.0,
                2595.0,
                2483.0,
                2566.0,
                2517.0,
                2553.0,
                2426.0,
                2865.0,
                2712.0,
                2830.0,
                2790.0,
                2995.0,
                3196.0,
                3175.0,
                3186.0,
                3337.0,
                3474.0,
                3713.0,
                3602.0,
                3510.0,
                3360.0,
                3513.0,
                3503.0,
                4130.0,
                3770.0,
                3803.0,
                3744.0,
                3777.0,
                3934.0,
                4647.0,
                4946.0,
                4463.0,
                4684.0,
                4898.0,
                5162.0,
                5985.0,
                5194.0,
                5068.0,
                4939.0,
                5808.0,
                5488.0,
                2354.0,
                2004.0,
                2128.0,
                2385.0,
                2363.0,
                2249.0,
                2493.0,
                2187.0,
                2377.0,
                2416.0,
                2492.0,
                2458.0,
                2371.0,
                2381.0,
                2718.0,
                2692.0,
                2731.0,
                2719.0,
                2923.0,
                3107.0,
                3042.0,
                3006.0,
                3175.0,
                3346.0,
                3442.0,
                3493.0,
                3307.0,
                3261.0,
                3354.0,
                3452.0,
                3950.0,
                3586.0,
                3555.0,
                3564.0,
                3599.0,
                3739.0,
                4296.0,
                4612.0,
                4155.0,
                4329.0,
                4623.0,
                4944.0,
                5632.0,
                4731.0,
                4770.0,
                4660.0,
                5440.0,
                5167.0,
