{
    "AcquisitionMatrixPE": 88,
    "AcquisitionNumber": 1,
    "AcquisitionTime": "15:40:5.000000",
    "BodyPartExamined": "BRAIN",
    "CoilString": "48HAP",
    "ConversionSoftware": "dcm2niix",
    "ConversionSoftwareVersion": "v1.0.20190410  GCC6.3.0",
    "DeviceSerialNumber": "0000000319335MR2",
    "EchoTime": 0.03,
    "EffectiveEchoSpacing": 0.000564,
    "FlipAngle": 75,
    "ImageOrientationPatientDICOM": [
        1,
        0,
        0,
        0,
        0.989778,
        -0.142619
    ],
    "ImageType": [
        "ORIGINAL",
        "PRIMARY",
        "OTHER"
    ],
    "ImagingFrequency": 127.754,
    "InPlanePhaseEncodingDirectionDICOM": "COL",
    "InstitutionName": "Iowa_MRRF",
    "IntendedFor": [
        "func/sub-10042_task-ThalHi_run-001_bold.nii.gz",
        "func/sub-10042_task-ThalHi_run-002_bold.nii.gz",
        "func/sub-10042_task-ThalHi_run-003_bold.nii.gz",
        "func/sub-10042_task-ThalHi_run-004_bold.nii.gz"
    ],
    "MRAcquisitionType": "2D",
    "MagneticFieldStrength": 3,
    "Manufacturer": "GE",
    "ManufacturersModelName": "SIGNA_Premier",
    "Modality": "MR",
    "PatientPosition": "HFS",
    "PercentPhaseFOV": 100,
    "PhaseEncodingDirection": "j",
    "PhaseEncodingPolarityGE": "Flipped",
    "PixelBandwidth": 3906.25,
    "ProcedureStepDescription": "HWANG_NET",
    "ProtocolName": "EPI_FM_pepolar=0",
    "ReconMatrixPE": 128,
    "RepetitionTime": 1.8,
    "SAR": 0.075607,
    "ScanOptions": "SAT_GEMS_EDR_GEMS_MP_GEMS_EPI_GEMS_HYPERBAND_GEMS_FS",
    "ScanningSequence": "EP_GR",
    "SequenceVariant": "SS",
    "SeriesDescription": "EPI_FM_pepolar=0",
    "SeriesNumber": 4,
    "SliceThickness": 2.5,
    "SliceTiming": [
        0,
        0.9,
        0.075,
        0.975,
        0.15,
        1.05,
        0.225,
        1.125,
        0.3,
        1.2,
        0.375,
        1.275,
        0.45,
        1.35,
        0.525,
        1.425,
        0.6,
        1.5,
        0.675,
        1.575,
        0.75,
        1.725,
        0.825,
        1.65,
        0,
        0.9,
        0.075,
        0.975,
        0.15,
        1.05,
        0.225,
        1.125,
        0.3,
        1.2,
        0.375,
        1.275,
        0.45,
        1.35,
        0.525,
        1.425,
        0.6,
        1.5,
        0.675,
        1.575,
        0.75,
        1.725,
        0.825,
        1.65
    ],
    "SoftwareVersions": "28_LX_MR_Software_release:RX28.0_R05_2035.a",
    "SpacingBetweenSlices": 2.5,
    "StationName": "Iowa3T",
    "TotalReadoutTime": 0.071628,
    "TriggerDelayTime": 10650,
    "dcmmeta_affine": [
        [
            -1.7187999486923218,
            0.0,
            0.0,
            107.76046752929688
        ],
        [
            0.0,
            1.7012299299240112,
            -0.35654449462890625,
            -107.7372055053711
        ],
        [
            0.0,
            0.24513335525989532,
            2.4744415283203125,
            -54.781211853027344
        ],
        [
            0.0,
            0.0,
            0.0,
            1.0
        ]
    ],
    "dcmmeta_reorient_transform": [
        [
            0.0,
            -1.0,
            0.0,
            127.0
        ],
        [
            1.0,
            0.0,
            0.0,
            0.0
        ],
        [
            0.0,
            0.0,
            -1.0,
            47.0
        ],
        [
            0.0,
            0.0,
            0.0,
            1.0
        ]
    ],
    "dcmmeta_shape": [
        128,
        128,
        48,
        6
    ],
    "dcmmeta_slice_dim": 2,
    "dcmmeta_version": 0.6,
    "global": {
        "const": {
            "AcquisitionMatrix": [
                88,
                0,
                0,
                88
            ],
            "AcquisitionNumber": 1,
            "AcquisitionTime": "154005",
            "AnatomicRegionSequence": [
                {
                    "CodeMeaning": "Brain",
                    "CodeValue": "T-A0100",
                    "CodingSchemeDesignator": "SRT"
                }
            ],
            "AngioFlag": "N",
            "BeatRejectionFlag": "Y",
            "BitsAllocated": 16,
            "BitsStored": 16,
            "BodyPartExamined": "BRAIN",
            "CardiacNumberOfImages": 0,
            "Columns": 128,
            "ContentTime": "154005",
            "EchoNumbers": 1,
            "EchoTime": 30.0,
            "EchoTrainLength": 1,
            "FlipAngle": 75.0,
            "GroupLength_0X40_0X0": 98,
            "GroupLength_0X7FE0_0X0": 32780,
            "HeartRate": 0,
            "HighBit": 15,
            "ImageType": [
                "ORIGINAL",
                "PRIMARY",
                "OTHER"
            ],
            "ImagedNucleus": "1H",
            "ImagesInAcquisition": 288,
            "ImagingFrequency": 127.753698,
            "InPlanePhaseEncodingDirection": "COL",
            "MRAcquisitionType": "2D",
            "MagneticFieldStrength": 3.0,
            "Manufacturer": "GE MEDICAL SYSTEMS",
            "ManufacturerModelName": "SIGNA Premier",
            "Modality": "MR",
            "NumberOfAverages": 1.0,
            "NumberOfTemporalPositions": 6,
            "PercentPhaseFieldOfView": 100.0,
            "PercentSampling": 100.0,
            "PerformedLocation": "Iowa",
            "PerformedProcedureStepStartTime": "153209",
            "PhotometricInterpretation": "MONOCHROME2",
            "PixelBandwidth": 3906.25,
            "PixelRepresentation": 1,
            "PixelSpacing": [
                1.7188,
                1.7188
            ],
            "ProtocolName": "HWANG_NET_THALHI",
            "ReceiveCoilName": "48HAP",
            "ReconstructionDiameter": 220.0,
            "ReferencedPerformedProcedureStepSequence": [
                {
                    "ReferencedSOPClassUID": "1.2.840.10008.3.1.2.3.3",
                    "ReferencedSOPInstanceUID": "1.2.840.113619.6.475.109754585391393281594502702282932671037"
                }
            ],
            "RepetitionTime": 1800.0,
            "Rows": 128,
            "SAR": 0.075607,
            "SamplesPerPixel": 1,
            "ScanOptions": [
                "SAT_GEMS",
                "EDR_GEMS",
                "MP_GEMS",
                "EPI_GEMS",
                "HYPERBAND_GEMS",
                "FS"
            ],
            "ScanningSequence": [
                "EP",
                "GR"
            ],
            "SequenceVariant": "SS",
            "SeriesDescription": "EPI FM pepolar=0",
            "SeriesNumber": 4,
            "SeriesTime": "154005",
            "SliceThickness": 2.5,
            "SmallestImagePixelValue": 0,
            "SoftwareVersions": [
                "28",
                "LX",
                "MR Software release:RX28.0_R05_2035.a"
            ],
            "SpacingBetweenSlices": 2.5,
            "SpecificCharacterSet": "ISO_IR 100",
            "StackID": "1",
            "StudyID": "1574",
            "StudyTime": "153215",
            "TriggerWindow": 0,
            "VariableFlipAngleFlag": "N"
        },
        "slices": {
            "InstanceNumber": [
                1,
                2,
                3,
                4,
                5,
                6,
                7,
                8,
                9,
                10,
                11,
                12,
                13,
                14,
                15,
                16,
                17,
                18,
                19,
                20,
                21,
                22,
                23,
                24,
                25,
                26,
                27,
                28,
                29,
                30,
                31,
                32,
                33,
                34,
                35,
                36,
                37,
                38,
                39,
                40,
                41,
                42,
                43,
                44,
                45,
                46,
                47,
                48,
                49,
                50,
                51,
                52,
                53,
                54,
                55,
                56,
                57,
                58,
                59,
                60,
                61,
                62,
                63,
                64,
                65,
                66,
                67,
                68,
                69,
                70,
                71,
                72,
                73,
                74,
                75,
                76,
                77,
                78,
                79,
                80,
                81,
                82,
                83,
                84,
                85,
                86,
                87,
                88,
                89,
                90,
                91,
                92,
                93,
                94,
                95,
                96,
                97,
                98,
                99,
                100,
                101,
                102,
                103,
                104,
                105,
                106,
                107,
                108,
                109,
                110,
                111,
                112,
                113,
                114,
                115,
                116,
                117,
                118,
                119,
                120,
                121,
                122,
                123,
                124,
                125,
                126,
                127,
                128,
                129,
                130,
                131,
                132,
                133,
                134,
                135,
                136,
                137,
                138,
                139,
                140,
                141,
                142,
                143,
                144,
                145,
                146,
                147,
                148,
                149,
                150,
                151,
                152,
                153,
                154,
                155,
                156,
                157,
                158,
                159,
                160,
                161,
                162,
                163,
                164,
                165,
                166,
                167,
                168,
                169,
                170,
                171,
                172,
                173,
                174,
                175,
                176,
                177,
                178,
                179,
                180,
                181,
                182,
                183,
                184,
                185,
                186,
                187,
                188,
                189,
                190,
                191,
                192,
                193,
                194,
                195,
                196,
                197,
                198,
                199,
                200,
                201,
                202,
                203,
                204,
                205,
                206,
                207,
                208,
                209,
                210,
                211,
                212,
                213,
                214,
                215,
                216,
                217,
                218,
                219,
                220,
                221,
                222,
                223,
                224,
                225,
                226,
                227,
                228,
                229,
                230,
                231,
                232,
                233,
                234,
                235,
                236,
                237,
                238,
                239,
                240,
                241,
                242,
                243,
                244,
                245,
                246,
                247,
                248,
                249,
                250,
                251,
                252,
                253,
                254,
                255,
                256,
                257,
                258,
                259,
                260,
                261,
                262,
                263,
                264,
                265,
                266,
                267,
                268,
                269,
                270,
                271,
                272,
                273,
                274,
                275,
                276,
                277,
                278,
                279,
                280,
                281,
                282,
                283,
                284,
                285,
                286,
                287,
                288
            ],
            "LargestImagePixelValue": [
                6276,
                4840,
                5763,
                4818,
                5103,
                6029,
                6470,
                5890,
                5288,
                6247,
                5232,
                5749,
                5993,
                5433,
                5580,
                5536,
                6019,
                5717,
                6022,
                5688,
                6168,
                6204,
                6494,
                6289,
                7289,
                6545,
                7824,
                7525,
                7713,
                6829,
                7727,
                8853,
                8854,
                9064,
                9359,
                8381,
                8931,
                8914,
                9136,
                9525,
                9030,
                9252,
                8934,
                8511,
                8784,
                9375,
                11184,
                10563,
                3515,
                3681,
                3914,
                3507,
                4099,
                5156,
                5632,
                4793,
                4526,
                5063,
                4126,
                4559,
                4689,
                4427,
                4420,
                4249,
                4479,
                4798,
                4387,
                4494,
                4874,
                4932,
                5382,
                5445,
                5489,
                5527,
                6517,
                6257,
                6015,
                5966,
                6357,
                7131,
                7322,
                7996,
                8037,
                7340,
                7559,
                7362,
                7879,
                7851,
                7193,
                7685,
                7236,
                7264,
                7322,
                7876,
                9208,
                9189,
                5561,
                4463,
                4684,
                3592,
                3946,
                4176,
                5084,
                4879,
                4318,
                4949,
                3949,
                4339,
                4308,
                4205,
                4248,
                4066,
                4202,
                4659,
                4273,
                4248,
                4620,
                4699,
                5034,
                5234,
                5102,
                5276,
                5970,
                6011,
                5646,
                5615,
                5999,
                6878,
                6670,
                7420,
                7418,
                6986,
                7299,
                6952,
                7378,
                7315,
                6946,
                7141,
                6887,
                6655,
                6923,
                7445,
                8511,
                8526,
                3389,
                3318,
                3594,
                3335,
                3844,
                4244,
                4913,
                4579,
                3983,
                4542,
                3976,
                4320,
                4266,
                4188,
                4165,
                3993,
                4153,
                4470,
                4250,
                4317,
                4528,
                4553,
                4884,
                5145,
                5057,
                5266,
                5890,
                5959,
                5610,
                5645,
                5695,
                6710,
                6561,
                7304,
                7179,
                6803,
                6932,
                6764,
                7137,
                7137,
                6752,
                7107,
                6607,
                6567,
                6659,
                7180,
                8319,
                8406,
                5183,
                3849,
                4317,
                3675,
                3693,
                4464,
                4770,
                4364,
                4073,
                4521,
                3918,
                4317,
                4216,
                4078,
                4292,
                3930,
                4391,
                4510,
                4264,
                4261,
                4564,
                4579,
                4676,
                5173,
                5062,
                5254,
                5579,
                5898,
                5462,
                5703,
                5824,
                6734,
                6612,
                7154,
                7143,
                6789,
                7060,
                6683,
                7054,
                7000,
                6829,
                6962,
                6601,
                6461,
                6605,
                7126,
                8138,
                8227,
                4684,
                3314,
                3525,
                3315,
                3562,
                4399,
                4839,
                4418,
                3875,
                4370,
                3891,
                4303,
                4155,
                4143,
                4110,
                3922,
                4138,
                4566,
                4280,
                4259,
                4613,
                4596,
                4821,
                5171,
                5048,
                5240,
                5822,
                5840,
                5350,
                5654,
                5624,
                6781,
                6416,
                7227,
                7094,
                6900,
                6890,
                6639,
                7027,
                6973,
                6670,
                6935,
                6526,
                6367,
                6578,
                7066,
                8136,
                8322
            ],
            "TriggerTime": [
                75.0,
                975.0,
                150.0,
                1050.0,
                225.0,
                1125.0,
                300.0,
                1200.0,
                375.0,
                1275.0,
                450.0,
                1350.0,
                525.0,
                1425.0,
                600.0,
                1500.0,
                675.0,
                1575.0,
                750.0,
                1650.0,
                825.0,
                1800.0,
                900.0,
                1725.0,
                75.0,
                975.0,
                150.0,
                1050.0,
                225.0,
                1125.0,
                300.0,
                1200.0,
                375.0,
                1275.0,
                450.0,
                1350.0,
                525.0,
                1425.0,
                600.0,
                1500.0,
                675.0,
                1575.0,
                750.0,
                1650.0,
                825.0,
                1800.0,
                900.0,
                1725.0,
                1875.0,
                2775.0,
                1950.0,
                2850.0,
                2025.0,
                2925.0,
                2100.0,
                3000.0,
                2175.0,
                3075.0,
                2250.0,
                3150.0,
                2325.0,
                3225.0,
                2400.0,
                3300.0,
                2475.0,
                3375.0,
                2550.0,
                3450.0,
                2625.0,
                3600.0,
                2700.0,
                3525.0,
                1875.0,
                2775.0,
                1950.0,
                2850.0,
                2025.0,
                2925.0,
                2100.0,
                3000.0,
                2175.0,
                3075.0,
                2250.0,
                3150.0,
                2325.0,
                3225.0,
                2400.0,
                3300.0,
                2475.0,
                3375.0,
                2550.0,
                3450.0,
                2625.0,
                3600.0,
                2700.0,
                3525.0,
                3675.0,
                4575.0,
                3750.0,
                4650.0,
                3825.0,
                4725.0,
                3900.0,
                4800.0,
                3975.0,
                4875.0,
                4050.0,
                4950.0,
                4125.0,
                5025.0,
                4200.0,
                5100.0,
                4275.0,
                5175.0,
                4350.0,
                5250.0,
                4425.0,
                5400.0,
                4500.0,
                5325.0,
                3675.0,
                4575.0,
                3750.0,
                4650.0,
                3825.0,
                4725.0,
                3900.0,
                4800.0,
                3975.0,
                4875.0,
                4050.0,
                4950.0,
                4125.0,
                5025.0,
                4200.0,
                5100.0,
                4275.0,
                5175.0,
                4350.0,
                5250.0,
                4425.0,
                5400.0,
                4500.0,
                5325.0,
                5475.0,
                6375.0,
                5550.0,
                6450.0,
                5625.0,
                6525.0,
                5700.0,
                6600.0,
                5775.0,
                6675.0,
                5850.0,
                6750.0,
                5925.0,
                6825.0,
                6000.0,
                6900.0,
                6075.0,
                6975.0,
                6150.0,
                7050.0,
                6225.0,
                7200.0,
                6300.0,
                7125.0,
                5475.0,
                6375.0,
                5550.0,
                6450.0,
                5625.0,
                6525.0,
                5700.0,
                6600.0,
                5775.0,
                6675.0,
                5850.0,
                6750.0,
                5925.0,
                6825.0,
                6000.0,
                6900.0,
                6075.0,
                6975.0,
                6150.0,
                7050.0,
                6225.0,
                7200.0,
                6300.0,
                7125.0,
                7275.0,
                8175.0,
                7350.0,
                8250.0,
                7425.0,
                8325.0,
                7500.0,
                8400.0,
                7575.0,
                8475.0,
                7650.0,
                8550.0,
                7725.0,
                8625.0,
                7800.0,
                8700.0,
                7875.0,
                8775.0,
                7950.0,
                8850.0,
                8025.0,
                9000.0,
                8100.0,
                8925.0,
                7275.0,
                8175.0,
                7350.0,
                8250.0,
                7425.0,
                8325.0,
                7500.0,
                8400.0,
                7575.0,
                8475.0,
                7650.0,
                8550.0,
                7725.0,
                8625.0,
                7800.0,
                8700.0,
                7875.0,
                8775.0,
                7950.0,
                8850.0,
                8025.0,
                9000.0,
                8100.0,
                8925.0,
                9075.0,
                9975.0,
                9150.0,
                10050.0,
                9225.0,
                10125.0,
                9300.0,
                10200.0,
                9375.0,
                10275.0,
                9450.0,
                10350.0,
                9525.0,
                10425.0,
                9600.0,
                10500.0,
                9675.0,
                10575.0,
                9750.0,
                10650.0,
                9825.0,
                10800.0,
                9900.0,
                10725.0,
                9075.0,
                9975.0,
                9150.0,
                10050.0,
                9225.0,
                10125.0,
                9300.0,
                10200.0,
                9375.0,
                10275.0,
                9450.0,
                10350.0,
                9525.0,
                10425.0,
                9600.0,
                10500.0,
                9675.0,
                10575.0,
                9750.0,
                10650.0,
                9825.0,
                10800.0,
                9900.0,
                10725.0
            ],
            "WindowCenter": [
                3765.0,
                2904.0,
                3457.0,
                2890.0,
                3061.0,
                3617.0,
                3882.0,
                3534.0,
                3172.0,
                3748.0,
                3139.0,
                3449.0,
                3595.0,
                3259.0,
                3348.0,
                3321.0,
                3611.0,
                3430.0,
                3613.0,
                3412.0,
                3700.0,
                3722.0,
                3896.0,
                3773.0,
                4373.0,
                3927.0,
                4694.0,
                4515.0,
                4627.0,
                4097.0,
                4636.0,
                5311.0,
                5312.0,
                5438.0,
                5615.0,
                5028.0,
                5358.0,
                5348.0,
                5481.0,
                5715.0,
                5418.0,
                5551.0,
                5360.0,
                5106.0,
                5270.0,
                5625.0,
                6710.0,
                6337.0,
                2109.0,
                2208.0,
                2348.0,
                2104.0,
                2459.0,
                3093.0,
                3379.0,
                2875.0,
                2715.0,
                3037.0,
                2475.0,
                2735.0,
                2813.0,
                2656.0,
                2652.0,
                2549.0,
                2687.0,
                2878.0,
                2632.0,
                2696.0,
                2924.0,
                2959.0,
                3229.0,
                3267.0,
                3293.0,
                3316.0,
                3910.0,
                3754.0,
                3609.0,
                3579.0,
                3814.0,
                4278.0,
                4393.0,
                4797.0,
                4822.0,
                4404.0,
                4535.0,
                4417.0,
                4727.0,
                4710.0,
                4315.0,
                4611.0,
                4341.0,
                4358.0,
                4393.0,
                4725.0,
                5524.0,
                5513.0,
                3336.0,
                2677.0,
                2810.0,
                2155.0,
                2367.0,
                2505.0,
                3050.0,
                2927.0,
                2590.0,
                2969.0,
                2369.0,
                2603.0,
                2584.0,
                2523.0,
                2548.0,
                2439.0,
                2521.0,
                2795.0,
                2563.0,
                2548.0,
                2772.0,
                2819.0,
                3020.0,
                3140.0,
                3061.0,
                3165.0,
                3582.0,
                3606.0,
                3387.0,
                3369.0,
                3599.0,
                4126.0,
                4002.0,
                4452.0,
                4450.0,
                4191.0,
                4379.0,
                4171.0,
                4426.0,
                4389.0,
                4167.0,
                4284.0,
                4132.0,
                3993.0,
                4153.0,
                4467.0,
                5106.0,
                5115.0,
                2033.0,
