{
    "AcquisitionMatrixPE": 88,
    "AcquisitionNumber": 1,
    "AcquisitionTime": "08:39:34.000000",
    "BodyPartExamined": "BRAIN",
    "CoilString": "48HAP",
    "ConversionSoftware": "dcm2niix",
    "ConversionSoftwareVersion": "v1.0.20190410  GCC6.3.0",
    "DeviceSerialNumber": "0000000319335MR2",
    "EchoTime": 0.03,
    "EffectiveEchoSpacing": 0.000564,
    "FlipAngle": 75,
    "ImageOrientationPatientDICOM": [
        1,
        0,
        0,
        0,
        1,
        0
    ],
    "ImageType": [
        "ORIGINAL",
        "PRIMARY",
        "OTHER"
    ],
    "ImagingFrequency": 127.754,
    "InPlanePhaseEncodingDirectionDICOM": "COL",
    "InstitutionName": "Iowa_MRRF",
    "IntendedFor": [
        "func/sub-10002_task-ThalHi_run-001_bold.nii.gz",
        "func/sub-10002_task-ThalHi_run-002_bold.nii.gz",
        "func/sub-10002_task-ThalHi_run-003_bold.nii.gz",
        "func/sub-10002_task-ThalHi_run-004_bold.nii.gz"
    ],
    "MRAcquisitionType": "2D",
    "MagneticFieldStrength": 3,
    "Manufacturer": "GE",
    "ManufacturersModelName": "SIGNA_Premier",
    "Modality": "MR",
    "PatientPosition": "HFS",
    "PercentPhaseFOV": 100,
    "PhaseEncodingDirection": "j",
    "PhaseEncodingPolarityGE": "Flipped",
    "PixelBandwidth": 3906.25,
    "ProcedureStepDescription": "HWANG_NET",
    "ProtocolName": "EPI_FM_pepolar=0",
    "ReconMatrixPE": 128,
    "RepetitionTime": 1.8,
    "SAR": 0.0729125,
    "ScanOptions": "SAT_GEMS_EDR_GEMS_MP_GEMS_EPI_GEMS_HYPERBAND_GEMS_FS",
    "ScanningSequence": "EP_GR",
    "SequenceVariant": "SS",
    "SeriesDescription": "EPI_FM_pepolar=0",
    "SeriesNumber": 4,
    "SliceThickness": 2.5,
    "SliceTiming": [
        0,
        0.9,
        0.075,
        0.975,
        0.15,
        1.05,
        0.225,
        1.125,
        0.3,
        1.2,
        0.375,
        1.275,
        0.45,
        1.35,
        0.525,
        1.425,
        0.6,
        1.5,
        0.675,
        1.575,
        0.75,
        1.725,
        0.825,
        1.65,
        0,
        0.9,
        0.075,
        0.975,
        0.15,
        1.05,
        0.225,
        1.125,
        0.3,
        1.2,
        0.375,
        1.275,
        0.45,
        1.35,
        0.525,
        1.425,
        0.6,
        1.5,
        0.675,
        1.575,
        0.75,
        1.725,
        0.825,
        1.65
    ],
    "SoftwareVersions": "28_LX_MR_Software_release:RX28.0_R04_2020.b",
    "SpacingBetweenSlices": 2.5,
    "StationName": "Iowa3T",
    "TotalReadoutTime": 0.071628,
    "TriggerDelayTime": 10650,
    "dcmmeta_affine": [
        [
            -1.7187999486923218,
            0.0,
            0.0,
            106.32780456542969
        ],
        [
            0.0,
            1.7187999486923218,
            0.0,
            -111.34539794921875
        ],
        [
            0.0,
            0.0,
            2.5,
            -57.82520294189453
        ],
        [
            0.0,
            0.0,
            0.0,
            1.0
        ]
    ],
    "dcmmeta_reorient_transform": [
        [
            0.0,
            -1.0,
            0.0,
            127.0
        ],
        [
            1.0,
            0.0,
            0.0,
            0.0
        ],
        [
            0.0,
            0.0,
            -1.0,
            47.0
        ],
        [
            0.0,
            0.0,
            0.0,
            1.0
        ]
    ],
    "dcmmeta_shape": [
        128,
        128,
        48,
        6
    ],
    "dcmmeta_slice_dim": 2,
    "dcmmeta_version": 0.6,
    "global": {
        "const": {
            "AcquisitionMatrix": [
                88,
                0,
                0,
                88
            ],
            "AcquisitionNumber": 1,
            "AcquisitionTime": "083934",
            "AnatomicRegionSequence": [
                {
                    "CodeMeaning": "Brain",
                    "CodeValue": "T-A0100",
                    "CodingSchemeDesignator": "SRT"
                }
            ],
            "AngioFlag": "N",
            "BeatRejectionFlag": "Y",
            "BitsAllocated": 16,
            "BitsStored": 16,
            "BodyPartExamined": "BRAIN",
            "CardiacNumberOfImages": 0,
            "Columns": 128,
            "ContentTime": "083934",
            "EchoNumbers": 1,
            "EchoTime": 30.0,
            "EchoTrainLength": 1,
            "FlipAngle": 75.0,
            "GroupLength_0X40_0X0": 98,
            "GroupLength_0X7FE0_0X0": 32780,
            "HeartRate": 0,
            "HighBit": 15,
            "ImageOrientationPatient": [
                1.0,
                -0.0,
                0.0,
                -0.0,
                1.0,
                0.0
            ],
            "ImageType": [
                "ORIGINAL",
                "PRIMARY",
                "OTHER"
            ],
            "ImagedNucleus": "1H",
            "ImagesInAcquisition": 288,
            "ImagingFrequency": 127.753598,
            "InPlanePhaseEncodingDirection": "COL",
            "MRAcquisitionType": "2D",
            "MagneticFieldStrength": 3.0,
            "Manufacturer": "GE MEDICAL SYSTEMS",
            "ManufacturerModelName": "SIGNA Premier",
            "Modality": "MR",
            "NumberOfAverages": 1.0,
            "NumberOfTemporalPositions": 6,
            "PercentPhaseFieldOfView": 100.0,
            "PercentSampling": 100.0,
            "PerformedLocation": "Iowa",
            "PerformedProcedureStepStartTime": "083133",
            "PhotometricInterpretation": "MONOCHROME2",
            "PixelBandwidth": 3906.25,
            "PixelRepresentation": 1,
            "PixelSpacing": [
                1.7188,
                1.7188
            ],
            "ProtocolName": "HWANG_NET_THALHI",
            "ReceiveCoilName": "48HAP",
            "ReconstructionDiameter": 220.0,
            "ReferencedPerformedProcedureStepSequence": [
                {
                    "ReferencedSOPClassUID": "1.2.840.10008.3.1.2.3.3",
                    "ReferencedSOPInstanceUID": "1.2.840.113619.6.475.74886208958187172750742372681672234070"
                }
            ],
            "RepetitionTime": 1800.0,
            "Rows": 128,
            "SAR": 0.0729125,
            "SamplesPerPixel": 1,
            "ScanOptions": [
                "SAT_GEMS",
                "EDR_GEMS",
                "MP_GEMS",
                "EPI_GEMS",
                "HYPERBAND_GEMS",
                "FS"
            ],
            "ScanningSequence": [
                "EP",
                "GR"
            ],
            "SequenceVariant": "SS",
            "SeriesDescription": "EPI FM pepolar=0",
            "SeriesNumber": 4,
            "SeriesTime": "083934",
            "SliceThickness": 2.5,
            "SmallestImagePixelValue": 0,
            "SoftwareVersions": [
                "28",
                "LX",
                "MR Software release:RX28.0_R04_2020.b"
            ],
            "SpacingBetweenSlices": 2.5,
            "SpecificCharacterSet": "ISO_IR 100",
            "StackID": "1",
            "StudyID": "539",
            "StudyTime": "083138",
            "TriggerWindow": 0,
            "VariableFlipAngleFlag": "N"
        },
        "slices": {
            "InstanceNumber": [
                1,
                2,
                3,
                4,
                5,
                6,
                7,
                8,
                9,
                10,
                11,
                12,
                13,
                14,
                15,
                16,
                17,
                18,
                19,
                20,
                21,
                22,
                23,
                24,
                25,
                26,
                27,
                28,
                29,
                30,
                31,
                32,
                33,
                34,
                35,
                36,
                37,
                38,
                39,
                40,
                41,
                42,
                43,
                44,
                45,
                46,
                47,
                48,
                49,
                50,
                51,
                52,
                53,
                54,
                55,
                56,
                57,
                58,
                59,
                60,
                61,
                62,
                63,
                64,
                65,
                66,
                67,
                68,
                69,
                70,
                71,
                72,
                73,
                74,
                75,
                76,
                77,
                78,
                79,
                80,
                81,
                82,
                83,
                84,
                85,
                86,
                87,
                88,
                89,
                90,
                91,
                92,
                93,
                94,
                95,
                96,
                97,
                98,
                99,
                100,
                101,
                102,
                103,
                104,
                105,
                106,
                107,
                108,
                109,
                110,
                111,
                112,
                113,
                114,
                115,
                116,
                117,
                118,
                119,
                120,
                121,
                122,
                123,
                124,
                125,
                126,
                127,
                128,
                129,
                130,
                131,
                132,
                133,
                134,
                135,
                136,
                137,
                138,
                139,
                140,
                141,
                142,
                143,
                144,
                145,
                146,
                147,
                148,
                149,
                150,
                151,
                152,
                153,
                154,
                155,
                156,
                157,
                158,
                159,
                160,
                161,
                162,
                163,
                164,
                165,
                166,
                167,
                168,
                169,
                170,
                171,
                172,
                173,
                174,
                175,
                176,
                177,
                178,
                179,
                180,
                181,
                182,
                183,
                184,
                185,
                186,
                187,
                188,
                189,
                190,
                191,
                192,
                193,
                194,
                195,
                196,
                197,
                198,
                199,
                200,
                201,
                202,
                203,
                204,
                205,
                206,
                207,
                208,
                209,
                210,
                211,
                212,
                213,
                214,
                215,
                216,
                217,
                218,
                219,
                220,
                221,
                222,
                223,
                224,
                225,
                226,
                227,
                228,
                229,
                230,
                231,
                232,
                233,
                234,
                235,
                236,
                237,
                238,
                239,
                240,
                241,
                242,
                243,
                244,
                245,
                246,
                247,
                248,
                249,
                250,
                251,
                252,
                253,
                254,
                255,
                256,
                257,
                258,
                259,
                260,
                261,
                262,
                263,
                264,
                265,
                266,
                267,
                268,
                269,
                270,
                271,
                272,
                273,
                274,
                275,
                276,
                277,
                278,
                279,
                280,
                281,
                282,
                283,
                284,
                285,
                286,
                287,
                288
            ],
            "LargestImagePixelValue": [
                7195,
                5055,
                5679,
                4400,
                5472,
                5044,
                5405,
                5060,
                5484,
                5619,
                5575,
                6329,
                6469,
                5484,
                6372,
                5344,
                5747,
                5711,
                6057,
                6103,
                6702,
                6190,
                6493,
                6502,
                7099,
                6692,
                7904,
                7389,
                9284,
                8115,
                8090,
                8906,
                10028,
                9823,
                9269,
                8526,
                10528,
                9480,
                9447,
                9430,
                10685,
                9994,
                11062,
                10769,
                10641,
                9848,
                9339,
                8912,
                6368,
                5048,
                4731,
                3875,
                4225,
                4235,
                4313,
                4290,
                4215,
                4499,
                4345,
                5394,
                5374,
                4301,
                4809,
                4341,
                4551,
                4601,
                6003,
                4548,
                5090,
                5045,
                5205,
                5554,
                5346,
                5526,
                6466,
                6146,
                7839,
                6910,
                6570,
                7693,
                8040,
                8128,
                7653,
                7023,
                9086,
                8348,
                8244,
                8297,
                9164,
                8272,
                9136,
                9090,
                9030,
                8350,
                7913,
                7635,
                5779,
                4522,
                4318,
                3751,
                4052,
                4168,
                4123,
                4051,
                4085,
                4428,
                4102,
                4986,
                5142,
                4194,
                4477,
                4211,
                4427,
                4421,
                4365,
                4359,
                4655,
                4896,
                5066,
                5171,
                5112,
                5297,
                6147,
                5808,
                7372,
                6551,
                5993,
                7433,
                7442,
                7563,
                7034,
                6667,
                8441,
                7708,
                7763,
                7757,
                8637,
                7724,
                8493,
                8491,
                8267,
                7875,
                7316,
                7207,
                5875,
                5070,
                4722,
                3720,
                3936,
                4161,
                4082,
                4103,
                4061,
                4278,
                4285,
                5125,
                5378,
                4180,
                4367,
                4174,
                4391,
                4409,
                4415,
                4399,
                4609,
                4937,
                4998,
                5295,
                4999,
                5317,
                5981,
                5577,
                7168,
                6431,
                5977,
                7228,
                7228,
                7373,
                6859,
                6439,
                8260,
                7675,
                7306,
                7571,
                8282,
                7482,
                8271,
                8255,
                8095,
                7661,
                7129,
                7036,
                5998,
                4883,
                4373,
                3742,
                3971,
                4115,
                4084,
                4027,
                4029,
                4341,
                4116,
                4911,
                5084,
                4152,
                4441,
                4184,
                4372,
                4261,
                4318,
                4328,
                4650,
                4853,
                5032,
                5162,
                4937,
                5306,
                5924,
                5645,
                7066,
                6382,
                5874,
                7386,
                7048,
                7314,
                6767,
                6437,
                8067,
                7430,
                7237,
                7416,
                8181,
                7434,
                8093,
                8232,
                8011,
                7497,
                6839,
                7084,
                4993,
                4913,
                3644,
                3778,
                3984,
                4176,
                4103,
                4059,
                4075,
                4260,
                4121,
                4885,
                4908,
                4141,
                4376,
                4193,
                4382,
                4379,
                4886,
                4409,
                4639,
                4922,
                4959,
                5081,
                4988,
                5291,
                5807,
                5534,
                7041,
                6351,
                5928,
                7201,
                7072,
                7240,
                6809,
                6494,
                8056,
                7488,
                7109,
                7468,
                7968,
                7373,
                8117,
                8197,
                7908,
                7446,
                6976,
                6894
            ],
            "TriggerTime": [
                75.0,
                975.0,
                150.0,
                1050.0,
                225.0,
                1125.0,
                300.0,
                1200.0,
                375.0,
                1275.0,
                450.0,
                1350.0,
                525.0,
                1425.0,
                600.0,
                1500.0,
                675.0,
                1575.0,
                750.0,
                1650.0,
                825.0,
                1800.0,
                900.0,
                1725.0,
                75.0,
                975.0,
                150.0,
                1050.0,
                225.0,
                1125.0,
                300.0,
                1200.0,
                375.0,
                1275.0,
                450.0,
                1350.0,
                525.0,
                1425.0,
                600.0,
                1500.0,
                675.0,
                1575.0,
                750.0,
                1650.0,
                825.0,
                1800.0,
                900.0,
                1725.0,
                1875.0,
                2775.0,
                1950.0,
                2850.0,
                2025.0,
                2925.0,
                2100.0,
                3000.0,
                2175.0,
                3075.0,
                2250.0,
                3150.0,
                2325.0,
                3225.0,
                2400.0,
                3300.0,
                2475.0,
                3375.0,
                2550.0,
                3450.0,
                2625.0,
                3600.0,
                2700.0,
                3525.0,
                1875.0,
                2775.0,
                1950.0,
                2850.0,
                2025.0,
                2925.0,
                2100.0,
                3000.0,
                2175.0,
                3075.0,
                2250.0,
                3150.0,
                2325.0,
                3225.0,
                2400.0,
                3300.0,
                2475.0,
                3375.0,
                2550.0,
                3450.0,
                2625.0,
                3600.0,
                2700.0,
                3525.0,
                3675.0,
                4575.0,
                3750.0,
                4650.0,
                3825.0,
                4725.0,
                3900.0,
                4800.0,
                3975.0,
                4875.0,
                4050.0,
                4950.0,
                4125.0,
                5025.0,
                4200.0,
                5100.0,
                4275.0,
                5175.0,
                4350.0,
                5250.0,
                4425.0,
                5400.0,
                4500.0,
                5325.0,
                3675.0,
                4575.0,
                3750.0,
                4650.0,
                3825.0,
                4725.0,
                3900.0,
                4800.0,
                3975.0,
                4875.0,
                4050.0,
                4950.0,
                4125.0,
                5025.0,
                4200.0,
                5100.0,
                4275.0,
                5175.0,
                4350.0,
                5250.0,
                4425.0,
                5400.0,
                4500.0,
                5325.0,
                5475.0,
                6375.0,
                5550.0,
                6450.0,
                5625.0,
                6525.0,
                5700.0,
                6600.0,
                5775.0,
                6675.0,
                5850.0,
                6750.0,
                5925.0,
                6825.0,
                6000.0,
                6900.0,
                6075.0,
                6975.0,
                6150.0,
                7050.0,
                6225.0,
                7200.0,
                6300.0,
                7125.0,
                5475.0,
                6375.0,
                5550.0,
                6450.0,
                5625.0,
                6525.0,
                5700.0,
                6600.0,
                5775.0,
                6675.0,
                5850.0,
                6750.0,
                5925.0,
                6825.0,
                6000.0,
                6900.0,
                6075.0,
                6975.0,
                6150.0,
                7050.0,
                6225.0,
                7200.0,
                6300.0,
                7125.0,
                7275.0,
                8175.0,
                7350.0,
                8250.0,
                7425.0,
                8325.0,
                7500.0,
                8400.0,
                7575.0,
                8475.0,
                7650.0,
                8550.0,
                7725.0,
                8625.0,
                7800.0,
                8700.0,
                7875.0,
                8775.0,
                7950.0,
                8850.0,
                8025.0,
                9000.0,
                8100.0,
                8925.0,
                7275.0,
                8175.0,
                7350.0,
                8250.0,
                7425.0,
                8325.0,
                7500.0,
                8400.0,
                7575.0,
                8475.0,
                7650.0,
                8550.0,
                7725.0,
                8625.0,
                7800.0,
                8700.0,
                7875.0,
                8775.0,
                7950.0,
                8850.0,
                8025.0,
                9000.0,
                8100.0,
                8925.0,
                9075.0,
                9975.0,
                9150.0,
                10050.0,
                9225.0,
                10125.0,
                9300.0,
                10200.0,
                9375.0,
                10275.0,
                9450.0,
                10350.0,
                9525.0,
                10425.0,
                9600.0,
                10500.0,
                9675.0,
                10575.0,
                9750.0,
                10650.0,
                9825.0,
                10800.0,
                9900.0,
                10725.0,
                9075.0,
                9975.0,
                9150.0,
                10050.0,
                9225.0,
                10125.0,
                9300.0,
                10200.0,
                9375.0,
                10275.0,
                9450.0,
                10350.0,
                9525.0,
                10425.0,
                9600.0,
                10500.0,
                9675.0,
                10575.0,
                9750.0,
                10650.0,
                9825.0,
                10800.0,
                9900.0,
                10725.0
            ],
            "WindowCenter": [
                4317.0,
                3033.0,
                3407.0,
                2640.0,
                3283.0,
                3026.0,
                3243.0,
                3036.0,
                3290.0,
                3371.0,
                3345.0,
                3797.0,
                3881.0,
                3290.0,
                3823.0,
                3206.0,
                3448.0,
                3426.0,
                3634.0,
                3661.0,
                4021.0,
                3714.0,
                3895.0,
                3901.0,
                4259.0,
                4015.0,
                4742.0,
                4433.0,
                5570.0,
                4869.0,
                4854.0,
                5343.0,
                6016.0,
                5893.0,
                5561.0,
                5115.0,
                6316.0,
                5688.0,
                5668.0,
                5658.0,
                6411.0,
                5996.0,
                6637.0,
                6461.0,
                6384.0,
                5908.0,
                5603.0,
                5347.0,
                3820.0,
                3028.0,
                2838.0,
                2325.0,
                2535.0,
                2541.0,
                2587.0,
                2574.0,
                2529.0,
                2699.0,
                2607.0,
                3236.0,
                3224.0,
                2580.0,
                2885.0,
                2604.0,
                2730.0,
                2760.0,
                3601.0,
                2728.0,
                3054.0,
                3027.0,
                3123.0,
                3332.0,
                3207.0,
                3315.0,
                3879.0,
                3687.0,
                4703.0,
                4146.0,
                3942.0,
                4615.0,
                4824.0,
                4876.0,
                4591.0,
                4213.0,
                5451.0,
                5008.0,
                4946.0,
                4978.0,
                5498.0,
                4963.0,
                5481.0,
                5454.0,
                5418.0,
                5010.0,
                4747.0,
                4581.0,
                3467.0,
                2713.0,
                2590.0,
                2250.0,
                2431.0,
                2500.0,
                2473.0,
                2430.0,
                2451.0,
                2656.0,
                2461.0,
                2991.0,
                3085.0,
                2516.0,
                2686.0,
                2526.0,
                2656.0,
                2652.0,
                2619.0,
                2615.0,
                2793.0,
                2937.0,
                3039.0,
                3102.0,
                3067.0,
                3178.0,
                3688.0,
                3484.0,
                4423.0,
                3930.0,
                3595.0,
                4459.0,
                4465.0,
                4537.0,
                4220.0,
                4000.0,
                5064.0,
                4624.0,
                4657.0,
                4654.0,
                5182.0,
                4634.0,
                5095.0,
