{
    "AcquisitionMatrixPE": 88,
    "AcquisitionNumber": 1,
    "AcquisitionTime": "15:32:7.000000",
    "BodyPartExamined": "BRAIN",
    "CoilString": "48HAP",
    "ConversionSoftware": "dcm2niix",
    "ConversionSoftwareVersion": "v1.0.20190410  GCC6.3.0",
    "DeviceSerialNumber": "0000000319335MR2",
    "EchoTime": 0.03,
    "EffectiveEchoSpacing": 0.000564,
    "FlipAngle": 75,
    "ImageOrientationPatientDICOM": [
        1,
        0,
        0,
        0,
        0.992468,
        -0.1225
    ],
    "ImageType": [
        "ORIGINAL",
        "PRIMARY",
        "OTHER"
    ],
    "ImagingFrequency": 127.754,
    "InPlanePhaseEncodingDirectionDICOM": "COL",
    "InstitutionName": "Iowa_MRRF",
    "IntendedFor": [
        "func/sub-10041_task-ThalHi_run-001_bold.nii.gz",
        "func/sub-10041_task-ThalHi_run-002_bold.nii.gz",
        "func/sub-10041_task-ThalHi_run-003_bold.nii.gz",
        "func/sub-10041_task-ThalHi_run-004_bold.nii.gz"
    ],
    "MRAcquisitionType": "2D",
    "MagneticFieldStrength": 3,
    "Manufacturer": "GE",
    "ManufacturersModelName": "SIGNA_Premier",
    "Modality": "MR",
    "PatientPosition": "HFS",
    "PercentPhaseFOV": 100,
    "PhaseEncodingDirection": "j",
    "PhaseEncodingPolarityGE": "Flipped",
    "PixelBandwidth": 3906.25,
    "ProcedureStepDescription": "HWANG_NET",
    "ProtocolName": "EPI_FM_pepolar=0",
    "ReconMatrixPE": 128,
    "RepetitionTime": 1.8,
    "SAR": 0.0746454,
    "ScanOptions": "SAT_GEMS_EDR_GEMS_MP_GEMS_EPI_GEMS_HYPERBAND_GEMS_FS",
    "ScanningSequence": "EP_GR",
    "SequenceVariant": "SS",
    "SeriesDescription": "EPI_FM_pepolar=0",
    "SeriesNumber": 4,
    "SliceThickness": 2.5,
    "SliceTiming": [
        0,
        0.9,
        0.075,
        0.975,
        0.15,
        1.05,
        0.225,
        1.125,
        0.3,
        1.2,
        0.375,
        1.275,
        0.45,
        1.35,
        0.525,
        1.425,
        0.6,
        1.5,
        0.675,
        1.575,
        0.75,
        1.725,
        0.825,
        1.65,
        0,
        0.9,
        0.075,
        0.975,
        0.15,
        1.05,
        0.225,
        1.125,
        0.3,
        1.2,
        0.375,
        1.275,
        0.45,
        1.35,
        0.525,
        1.425,
        0.6,
        1.5,
        0.675,
        1.575,
        0.75,
        1.725,
        0.825,
        1.65
    ],
    "SoftwareVersions": "28_LX_MR_Software_release:RX28.0_R05_2035.a",
    "SpacingBetweenSlices": 2.5,
    "StationName": "Iowa3T",
    "TotalReadoutTime": 0.071628,
    "TriggerDelayTime": 10650,
    "dcmmeta_affine": [
        [
            -1.7187999486923218,
            0.0,
            0.0,
            110.29979705810547
        ],
        [
            0.0,
            1.7058547735214233,
            -0.30625152587890625,
            -107.25936126708984
        ],
        [
            0.0,
            0.21055348217487335,
            2.481170654296875,
            -71.1048583984375
        ],
        [
            0.0,
            0.0,
            0.0,
            1.0
        ]
    ],
    "dcmmeta_reorient_transform": [
        [
            0.0,
            -1.0,
            0.0,
            127.0
        ],
        [
            1.0,
            0.0,
            0.0,
            0.0
        ],
        [
            0.0,
            0.0,
            -1.0,
            47.0
        ],
        [
            0.0,
            0.0,
            0.0,
            1.0
        ]
    ],
    "dcmmeta_shape": [
        128,
        128,
        48,
        6
    ],
    "dcmmeta_slice_dim": 2,
    "dcmmeta_version": 0.6,
    "global": {
        "const": {
            "AcquisitionMatrix": [
                88,
                0,
                0,
                88
            ],
            "AcquisitionNumber": 1,
            "AcquisitionTime": "153207",
            "AnatomicRegionSequence": [
                {
                    "CodeMeaning": "Brain",
                    "CodeValue": "T-A0100",
                    "CodingSchemeDesignator": "SRT"
                }
            ],
            "AngioFlag": "N",
            "BeatRejectionFlag": "Y",
            "BitsAllocated": 16,
            "BitsStored": 16,
            "BodyPartExamined": "BRAIN",
            "CardiacNumberOfImages": 0,
            "Columns": 128,
            "ContentTime": "153207",
            "EchoNumbers": 1,
            "EchoTime": 30.0,
            "EchoTrainLength": 1,
            "FlipAngle": 75.0,
            "GroupLength_0X40_0X0": 98,
            "GroupLength_0X7FE0_0X0": 32780,
            "HeartRate": 0,
            "HighBit": 15,
            "ImageType": [
                "ORIGINAL",
                "PRIMARY",
                "OTHER"
            ],
            "ImagedNucleus": "1H",
            "ImagesInAcquisition": 288,
            "ImagingFrequency": 127.753616,
            "InPlanePhaseEncodingDirection": "COL",
            "MRAcquisitionType": "2D",
            "MagneticFieldStrength": 3.0,
            "Manufacturer": "GE MEDICAL SYSTEMS",
            "ManufacturerModelName": "SIGNA Premier",
            "Modality": "MR",
            "NumberOfAverages": 1.0,
            "NumberOfTemporalPositions": 6,
            "PercentPhaseFieldOfView": 100.0,
            "PercentSampling": 100.0,
            "PerformedLocation": "Iowa",
            "PerformedProcedureStepStartTime": "152413",
            "PhotometricInterpretation": "MONOCHROME2",
            "PixelBandwidth": 3906.25,
            "PixelRepresentation": 1,
            "PixelSpacing": [
                1.7188,
                1.7188
            ],
            "ProtocolName": "HWANG_NET_THALHI",
            "ReceiveCoilName": "48HAP",
            "ReconstructionDiameter": 220.0,
            "ReferencedPerformedProcedureStepSequence": [
                {
                    "ReferencedSOPClassUID": "1.2.840.10008.3.1.2.3.3",
                    "ReferencedSOPInstanceUID": "1.2.840.113619.6.475.11513239761324505129679263568605976587"
                }
            ],
            "RepetitionTime": 1800.0,
            "Rows": 128,
            "SAR": 0.0746454,
            "SamplesPerPixel": 1,
            "ScanOptions": [
                "SAT_GEMS",
                "EDR_GEMS",
                "MP_GEMS",
                "EPI_GEMS",
                "HYPERBAND_GEMS",
                "FS"
            ],
            "ScanningSequence": [
                "EP",
                "GR"
            ],
            "SequenceVariant": "SS",
            "SeriesDescription": "EPI FM pepolar=0",
            "SeriesNumber": 4,
            "SeriesTime": "153207",
            "SliceThickness": 2.5,
            "SmallestImagePixelValue": 0,
            "SoftwareVersions": [
                "28",
                "LX",
                "MR Software release:RX28.0_R05_2035.a"
            ],
            "SpacingBetweenSlices": 2.5,
            "SpecificCharacterSet": "ISO_IR 100",
            "StackID": "1",
            "StudyID": "1536",
            "StudyTime": "152418",
            "TriggerWindow": 0,
            "VariableFlipAngleFlag": "N"
        },
        "slices": {
            "InstanceNumber": [
                1,
                2,
                3,
                4,
                5,
                6,
                7,
                8,
                9,
                10,
                11,
                12,
                13,
                14,
                15,
                16,
                17,
                18,
                19,
                20,
                21,
                22,
                23,
                24,
                25,
                26,
                27,
                28,
                29,
                30,
                31,
                32,
                33,
                34,
                35,
                36,
                37,
                38,
                39,
                40,
                41,
                42,
                43,
                44,
                45,
                46,
                47,
                48,
                49,
                50,
                51,
                52,
                53,
                54,
                55,
                56,
                57,
                58,
                59,
                60,
                61,
                62,
                63,
                64,
                65,
                66,
                67,
                68,
                69,
                70,
                71,
                72,
                73,
                74,
                75,
                76,
                77,
                78,
                79,
                80,
                81,
                82,
                83,
                84,
                85,
                86,
                87,
                88,
                89,
                90,
                91,
                92,
                93,
                94,
                95,
                96,
                97,
                98,
                99,
                100,
                101,
                102,
                103,
                104,
                105,
                106,
                107,
                108,
                109,
                110,
                111,
                112,
                113,
                114,
                115,
                116,
                117,
                118,
                119,
                120,
                121,
                122,
                123,
                124,
                125,
                126,
                127,
                128,
                129,
                130,
                131,
                132,
                133,
                134,
                135,
                136,
                137,
                138,
                139,
                140,
                141,
                142,
                143,
                144,
                145,
                146,
                147,
                148,
                149,
                150,
                151,
                152,
                153,
                154,
                155,
                156,
                157,
                158,
                159,
                160,
                161,
                162,
                163,
                164,
                165,
                166,
                167,
                168,
                169,
                170,
                171,
                172,
                173,
                174,
                175,
                176,
                177,
                178,
                179,
                180,
                181,
                182,
                183,
                184,
                185,
                186,
                187,
                188,
                189,
                190,
                191,
                192,
                193,
                194,
                195,
                196,
                197,
                198,
                199,
                200,
                201,
                202,
                203,
                204,
                205,
                206,
                207,
                208,
                209,
                210,
                211,
                212,
                213,
                214,
                215,
                216,
                217,
                218,
                219,
                220,
                221,
                222,
                223,
                224,
                225,
                226,
                227,
                228,
                229,
                230,
                231,
                232,
                233,
                234,
                235,
                236,
                237,
                238,
                239,
                240,
                241,
                242,
                243,
                244,
                245,
                246,
                247,
                248,
                249,
                250,
                251,
                252,
                253,
                254,
                255,
                256,
                257,
                258,
                259,
                260,
                261,
                262,
                263,
                264,
                265,
                266,
                267,
                268,
                269,
                270,
                271,
                272,
                273,
                274,
                275,
                276,
                277,
                278,
                279,
                280,
                281,
                282,
                283,
                284,
                285,
                286,
                287,
                288
            ],
            "LargestImagePixelValue": [
                4598,
                4007,
                4354,
                4223,
                4271,
                4436,
                4660,
                4302,
                4876,
                5273,
                5111,
                4986,
                5426,
                4693,
                5135,
                5009,
                5205,
                5169,
                6345,
                6416,
                7226,
                5598,
                5933,
                5419,
                6711,
                6390,
                6939,
                6720,
                6860,
                6546,
                7163,
                7086,
                7925,
                8623,
                8713,
                8090,
                8944,
                7971,
                8460,
                8380,
                8829,
                8950,
                8643,
                9897,
                9112,
                8403,
                8076,
                7765,
                4210,
                3212,
                3512,
                3512,
                3310,
                3775,
                3717,
                3448,
                3720,
                4064,
                4063,
                3935,
                4230,
                3776,
                4216,
                4135,
                4296,
                4380,
                4744,
                5301,
                5713,
                4329,
                4803,
                4789,
                5227,
                5292,
                5440,
                5653,
                5302,
                5430,
                5695,
                5931,
                6395,
                7080,
                6932,
                6532,
                7483,
                6511,
                6951,
                6913,
                7092,
                7533,
                7055,
                8216,
                7558,
                6932,
                6652,
                6454,
                3507,
                2981,
                3212,
                3279,
                3095,
                3657,
                3539,
                3501,
                3583,
                3876,
                4553,
                4147,
                4035,
                3672,
                4274,
                4099,
                4174,
                4242,
                4733,
                4905,
                5243,
                4213,
                4546,
                4690,
                4909,
                4987,
                5069,
                5107,
                4898,
                5068,
                5233,
                5444,
                5972,
                6552,
                6466,
                5980,
                6834,
                6117,
                6584,
                6442,
                6875,
                7014,
                6596,
                7641,
                6945,
                6552,
                6307,
                6354,
                2888,
                3103,
                2965,
                3451,
                3062,
                3598,
                3526,
                3452,
                3573,
                3845,
                3631,
                3831,
                3918,
                3707,
                4172,
                4033,
                4059,
                4190,
                4454,
                4914,
                5087,
                4125,
                4579,
                4631,
                4863,
                4802,
                4784,
                5275,
                4799,
                4939,
                5122,
                5362,
                5769,
                6416,
                6163,
                5868,
                6650,
                5932,
                6375,
                6297,
                6733,
                6861,
                6488,
                7519,
                6647,
                6434,
                5871,
                6259,
                3366,
                3119,
                2926,
                3254,
                3035,
                3598,
                3543,
                3494,
                3551,
                3552,
                3622,
                3544,
                3911,
                3647,
                3984,
                3935,
                4053,
                4125,
                4317,
                4689,
                5156,
                4191,
                4545,
                4653,
                4810,
                5027,
                4799,
                5176,
                4782,
                4875,
                5057,
                5270,
                5695,
                6284,
                6125,
                5809,
                6583,
                5863,
                6345,
                5939,
                6700,
                6732,
                6417,
                7433,
                6769,
                6375,
                5942,
                6210,
                3495,
                3129,
                2926,
                3069,
                3064,
                3623,
                3550,
                3516,
                3623,
                3876,
                3640,
                3557,
                3873,
                3576,
                3913,
                3919,
                4047,
                4100,
                4482,
                4772,
                5023,
                4211,
                4482,
                4674,
                4768,
                4896,
                4829,
                5063,
                4754,
                4860,
                5056,
                5167,
                5685,
                6216,
                6072,
                5769,
                6537,
                5814,
                6201,
                5888,
                6550,
                6690,
                6350,
                7390,
                6631,
                6280,
                5928,
                6099
            ],
            "TriggerTime": [
                75.0,
                975.0,
                150.0,
                1050.0,
                225.0,
                1125.0,
                300.0,
                1200.0,
                375.0,
                1275.0,
                450.0,
                1350.0,
                525.0,
                1425.0,
                600.0,
                1500.0,
                675.0,
                1575.0,
                750.0,
                1650.0,
                825.0,
                1800.0,
                900.0,
                1725.0,
                75.0,
                975.0,
                150.0,
                1050.0,
                225.0,
                1125.0,
                300.0,
                1200.0,
                375.0,
                1275.0,
                450.0,
                1350.0,
                525.0,
                1425.0,
                600.0,
                1500.0,
                675.0,
                1575.0,
                750.0,
                1650.0,
                825.0,
                1800.0,
                900.0,
                1725.0,
                1875.0,
                2775.0,
                1950.0,
                2850.0,
                2025.0,
                2925.0,
                2100.0,
                3000.0,
                2175.0,
                3075.0,
                2250.0,
                3150.0,
                2325.0,
                3225.0,
                2400.0,
                3300.0,
                2475.0,
                3375.0,
                2550.0,
                3450.0,
                2625.0,
                3600.0,
                2700.0,
                3525.0,
                1875.0,
                2775.0,
                1950.0,
                2850.0,
                2025.0,
                2925.0,
                2100.0,
                3000.0,
                2175.0,
                3075.0,
                2250.0,
                3150.0,
                2325.0,
                3225.0,
                2400.0,
                3300.0,
                2475.0,
                3375.0,
                2550.0,
                3450.0,
                2625.0,
                3600.0,
                2700.0,
                3525.0,
                3675.0,
                4575.0,
                3750.0,
                4650.0,
                3825.0,
                4725.0,
                3900.0,
                4800.0,
                3975.0,
                4875.0,
                4050.0,
                4950.0,
                4125.0,
                5025.0,
                4200.0,
                5100.0,
                4275.0,
                5175.0,
                4350.0,
                5250.0,
                4425.0,
                5400.0,
                4500.0,
                5325.0,
                3675.0,
                4575.0,
                3750.0,
                4650.0,
                3825.0,
                4725.0,
                3900.0,
                4800.0,
                3975.0,
                4875.0,
                4050.0,
                4950.0,
                4125.0,
                5025.0,
                4200.0,
                5100.0,
                4275.0,
                5175.0,
                4350.0,
                5250.0,
                4425.0,
                5400.0,
                4500.0,
                5325.0,
                5475.0,
                6375.0,
                5550.0,
                6450.0,
                5625.0,
                6525.0,
                5700.0,
                6600.0,
                5775.0,
                6675.0,
                5850.0,
                6750.0,
                5925.0,
                6825.0,
                6000.0,
                6900.0,
                6075.0,
                6975.0,
                6150.0,
                7050.0,
                6225.0,
                7200.0,
                6300.0,
                7125.0,
                5475.0,
                6375.0,
                5550.0,
                6450.0,
                5625.0,
                6525.0,
                5700.0,
                6600.0,
                5775.0,
                6675.0,
                5850.0,
                6750.0,
                5925.0,
                6825.0,
                6000.0,
                6900.0,
                6075.0,
                6975.0,
                6150.0,
                7050.0,
                6225.0,
                7200.0,
                6300.0,
                7125.0,
                7275.0,
                8175.0,
                7350.0,
                8250.0,
                7425.0,
                8325.0,
                7500.0,
                8400.0,
                7575.0,
                8475.0,
                7650.0,
                8550.0,
                7725.0,
                8625.0,
                7800.0,
                8700.0,
                7875.0,
                8775.0,
                7950.0,
                8850.0,
                8025.0,
                9000.0,
                8100.0,
                8925.0,
                7275.0,
                8175.0,
                7350.0,
                8250.0,
                7425.0,
                8325.0,
                7500.0,
                8400.0,
                7575.0,
                8475.0,
                7650.0,
                8550.0,
                7725.0,
                8625.0,
                7800.0,
                8700.0,
                7875.0,
                8775.0,
                7950.0,
                8850.0,
                8025.0,
                9000.0,
                8100.0,
                8925.0,
                9075.0,
                9975.0,
                9150.0,
                10050.0,
                9225.0,
                10125.0,
                9300.0,
                10200.0,
                9375.0,
                10275.0,
                9450.0,
                10350.0,
                9525.0,
                10425.0,
                9600.0,
                10500.0,
                9675.0,
                10575.0,
                9750.0,
                10650.0,
                9825.0,
                10800.0,
                9900.0,
                10725.0,
                9075.0,
                9975.0,
                9150.0,
                10050.0,
                9225.0,
                10125.0,
                9300.0,
                10200.0,
                9375.0,
                10275.0,
                9450.0,
                10350.0,
                9525.0,
                10425.0,
                9600.0,
                10500.0,
                9675.0,
                10575.0,
                9750.0,
                10650.0,
                9825.0,
                10800.0,
                9900.0,
                10725.0
            ],
            "WindowCenter": [
                2758.0,
                2404.0,
                2612.0,
                2533.0,
                2562.0,
                2661.0,
                2796.0,
                2581.0,
                2925.0,
                3163.0,
                3066.0,
                2991.0,
                3255.0,
                2815.0,
                3081.0,
                3005.0,
                3123.0,
                3101.0,
                3807.0,
                3849.0,
                4335.0,
                3358.0,
                3559.0,
                3251.0,
                4026.0,
                3834.0,
                4163.0,
                4032.0,
                4116.0,
                3927.0,
                4297.0,
                4251.0,
                4755.0,
                5173.0,
                5227.0,
                4854.0,
                5366.0,
                4782.0,
                5076.0,
                5028.0,
                5297.0,
                5370.0,
                5185.0,
                5938.0,
                5467.0,
                5041.0,
                4845.0,
                4659.0,
                2526.0,
                1927.0,
                2107.0,
                2107.0,
                1986.0,
                2265.0,
                2230.0,
                2068.0,
                2232.0,
                2438.0,
                2437.0,
                2361.0,
                2538.0,
                2265.0,
                2529.0,
                2481.0,
                2577.0,
                2628.0,
                2846.0,
                3180.0,
                3427.0,
                2597.0,
                2881.0,
                2873.0,
                3136.0,
                3175.0,
                3264.0,
                3391.0,
                3181.0,
                3258.0,
                3417.0,
                3558.0,
                3837.0,
                4248.0,
                4159.0,
                3919.0,
                4489.0,
                3906.0,
                4170.0,
                4147.0,
                4255.0,
                4519.0,
                4233.0,
                4929.0,
                4534.0,
                4159.0,
                3991.0,
                3872.0,
                2104.0,
                1788.0,
                1927.0,
                1967.0,
                1857.0,
                2194.0,
                2123.0,
                2100.0,
                2149.0,
                2325.0,
                2731.0,
                2488.0,
                2421.0,
                2203.0,
                2564.0,
                2459.0,
                2504.0,
                2545.0,
                2839.0,
                2943.0,
                3145.0,
                2527.0,
                2727.0,
                2814.0,
                2945.0,
                2992.0,
                3041.0,
                3064.0,
                2938.0,
                3040.0,
                3139.0,
                3266.0,
                3583.0,
                3931.0,
                3879.0,
                3588.0,
                4100.0,
                3670.0,
                3950.0,
                3865.0,
                4125.0,
                4208.0,
                3957.0,
                4584.0,
                4167.0,
                3931.0,
                3784.0,
                3812.0,
                1732.0,
