{
    "AcquisitionMatrixPE": 88,
    "AcquisitionNumber": 1,
    "AcquisitionTime": "09:18:19.000000",
    "BodyPartExamined": "BRAIN",
    "CoilString": "48HAP",
    "ConversionSoftware": "dcm2niix",
    "ConversionSoftwareVersion": "v1.0.20190410  GCC6.3.0",
    "DeviceSerialNumber": "0000000319335MR2",
    "EchoTime": 0.03,
    "EffectiveEchoSpacing": 0.000564,
    "FlipAngle": 75,
    "ImageOrientationPatientDICOM": [
        1,
        0,
        0,
        0,
        0.981149,
        -0.193251
    ],
    "ImageType": [
        "ORIGINAL",
        "PRIMARY",
        "OTHER"
    ],
    "ImagingFrequency": 127.753,
    "InPlanePhaseEncodingDirectionDICOM": "COL",
    "InstitutionName": "Iowa_MRRF",
    "IntendedFor": [
        "func/sub-10174_task-ThalHi_run-001_bold.nii.gz",
        "func/sub-10174_task-ThalHi_run-002_bold.nii.gz",
        "func/sub-10174_task-ThalHi_run-003_bold.nii.gz",
        "func/sub-10174_task-ThalHi_run-004_bold.nii.gz"
    ],
    "MRAcquisitionType": "2D",
    "MagneticFieldStrength": 3,
    "Manufacturer": "GE",
    "ManufacturersModelName": "SIGNA_Premier",
    "Modality": "MR",
    "PatientPosition": "HFS",
    "PercentPhaseFOV": 100,
    "PhaseEncodingDirection": "j-",
    "PhaseEncodingPolarityGE": "Unflipped",
    "PixelBandwidth": 3906.25,
    "ProcedureStepDescription": "HWANG_NET",
    "ProtocolName": "EPI_FM_pepolar=1",
    "ReconMatrixPE": 128,
    "RepetitionTime": 1.8,
    "SAR": 0.07624,
    "ScanOptions": "SAT_GEMS_EDR_GEMS_MP_GEMS_EPI_GEMS_HYPERBAND_GEMS_FS",
    "ScanningSequence": "EP_GR",
    "SequenceVariant": "SS",
    "SeriesDescription": "EPI_FM_pepolar=1",
    "SeriesNumber": 5,
    "SliceThickness": 2.5,
    "SliceTiming": [
        0,
        0.9,
        0.075,
        0.975,
        0.15,
        1.05,
        0.225,
        1.125,
        0.3,
        1.2,
        0.375,
        1.275,
        0.45,
        1.35,
        0.525,
        1.425,
        0.6,
        1.5,
        0.675,
        1.575,
        0.75,
        1.725,
        0.825,
        1.65,
        0,
        0.9,
        0.075,
        0.975,
        0.15,
        1.05,
        0.225,
        1.125,
        0.3,
        1.2,
        0.375,
        1.275,
        0.45,
        1.35,
        0.525,
        1.425,
        0.6,
        1.5,
        0.675,
        1.575,
        0.75,
        1.725,
        0.825,
        1.65
    ],
    "SoftwareVersions": "28_LX_MR_Software_release:RX28.0_R05_2035.a",
    "SpacingBetweenSlices": 2.5,
    "StationName": "Iowa3T",
    "TotalReadoutTime": 0.071628,
    "TriggerDelayTime": 10650,
    "dcmmeta_affine": [
        [
            -1.7187999486923218,
            0.0,
            0.0,
            109.1406021118164
        ],
        [
            0.0,
            1.6863995790481567,
            -0.48313140869140625,
            -104.80996704101562
        ],
        [
            0.0,
            0.33215969800949097,
            2.4528732299804688,
            -87.34274291992188
        ],
        [
            0.0,
            0.0,
            0.0,
            1.0
        ]
    ],
    "dcmmeta_reorient_transform": [
        [
            0.0,
            -1.0,
            0.0,
            127.0
        ],
        [
            1.0,
            0.0,
            0.0,
            0.0
        ],
        [
            0.0,
            0.0,
            -1.0,
            47.0
        ],
        [
            0.0,
            0.0,
            0.0,
            1.0
        ]
    ],
    "dcmmeta_shape": [
        128,
        128,
        48,
        6
    ],
    "dcmmeta_slice_dim": 2,
    "dcmmeta_version": 0.6,
    "global": {
        "const": {
            "AcquisitionMatrix": [
                88,
                0,
                0,
                88
            ],
            "AcquisitionNumber": 1,
            "AcquisitionTime": "091819",
            "AnatomicRegionSequence": [
                {
                    "CodeMeaning": "Brain",
                    "CodeValue": "T-A0100",
                    "CodingSchemeDesignator": "SRT"
                }
            ],
            "AngioFlag": "N",
            "BeatRejectionFlag": "Y",
            "BitsAllocated": 16,
            "BitsStored": 16,
            "BodyPartExamined": "BRAIN",
            "CardiacNumberOfImages": 0,
            "Columns": 128,
            "ContentTime": "091819",
            "EchoNumbers": 1,
            "EchoTime": 30.0,
            "EchoTrainLength": 1,
            "FlipAngle": 75.0,
            "GroupLength_0X40_0X0": 98,
            "GroupLength_0X7FE0_0X0": 32780,
            "HeartRate": 0,
            "HighBit": 15,
            "ImageType": [
                "ORIGINAL",
                "PRIMARY",
                "OTHER"
            ],
            "ImagedNucleus": "1H",
            "ImagesInAcquisition": 288,
            "ImagingFrequency": 127.753386,
            "InPlanePhaseEncodingDirection": "COL",
            "MRAcquisitionType": "2D",
            "MagneticFieldStrength": 3.0,
            "Manufacturer": "GE MEDICAL SYSTEMS",
            "ManufacturerModelName": "SIGNA Premier",
            "Modality": "MR",
            "NumberOfAverages": 1.0,
            "NumberOfTemporalPositions": 6,
            "PercentPhaseFieldOfView": 100.0,
            "PercentSampling": 100.0,
            "PerformedLocation": "Iowa",
            "PerformedProcedureStepStartTime": "090941",
            "PhotometricInterpretation": "MONOCHROME2",
            "PixelBandwidth": 3906.25,
            "PixelRepresentation": 1,
            "PixelSpacing": [
                1.7188,
                1.7188
            ],
            "ProtocolName": "HWANG_NET_THALHI",
            "ReceiveCoilName": "48HAP",
            "ReconstructionDiameter": 220.0,
            "ReferencedPerformedProcedureStepSequence": [
                {
                    "ReferencedSOPClassUID": "1.2.840.10008.3.1.2.3.3",
                    "ReferencedSOPInstanceUID": "1.2.840.113619.6.475.278313320088042979707262934483659480801"
                }
            ],
            "RepetitionTime": 1800.0,
            "Rows": 128,
            "SAR": 0.07624,
            "SamplesPerPixel": 1,
            "ScanOptions": [
                "SAT_GEMS",
                "EDR_GEMS",
                "MP_GEMS",
                "EPI_GEMS",
                "HYPERBAND_GEMS",
                "FS"
            ],
            "ScanningSequence": [
                "EP",
                "GR"
            ],
            "SequenceVariant": "SS",
            "SeriesDescription": "EPI FM pepolar=1",
            "SeriesNumber": 5,
            "SeriesTime": "091819",
            "SliceThickness": 2.5,
            "SmallestImagePixelValue": 0,
            "SoftwareVersions": [
                "28",
                "LX",
                "MR Software release:RX28.0_R05_2035.a"
            ],
            "SpacingBetweenSlices": 2.5,
            "SpecificCharacterSet": "ISO_IR 100",
            "StackID": "1",
            "StudyID": "2543",
            "StudyTime": "090948",
            "TriggerWindow": 0,
            "VariableFlipAngleFlag": "N"
        },
        "slices": {
            "InstanceNumber": [
                1,
                2,
                3,
                4,
                5,
                6,
                7,
                8,
                9,
                10,
                11,
                12,
                13,
                14,
                15,
                16,
                17,
                18,
                19,
                20,
                21,
                22,
                23,
                24,
                25,
                26,
                27,
                28,
                29,
                30,
                31,
                32,
                33,
                34,
                35,
                36,
                37,
                38,
                39,
                40,
                41,
                42,
                43,
                44,
                45,
                46,
                47,
                48,
                49,
                50,
                51,
                52,
                53,
                54,
                55,
                56,
                57,
                58,
                59,
                60,
                61,
                62,
                63,
                64,
                65,
                66,
                67,
                68,
                69,
                70,
                71,
                72,
                73,
                74,
                75,
                76,
                77,
                78,
                79,
                80,
                81,
                82,
                83,
                84,
                85,
                86,
                87,
                88,
                89,
                90,
                91,
                92,
                93,
                94,
                95,
                96,
                97,
                98,
                99,
                100,
                101,
                102,
                103,
                104,
                105,
                106,
                107,
                108,
                109,
                110,
                111,
                112,
                113,
                114,
                115,
                116,
                117,
                118,
                119,
                120,
                121,
                122,
                123,
                124,
                125,
                126,
                127,
                128,
                129,
                130,
                131,
                132,
                133,
                134,
                135,
                136,
                137,
                138,
                139,
                140,
                141,
                142,
                143,
                144,
                145,
                146,
                147,
                148,
                149,
                150,
                151,
                152,
                153,
                154,
                155,
                156,
                157,
                158,
                159,
                160,
                161,
                162,
                163,
                164,
                165,
                166,
                167,
                168,
                169,
                170,
                171,
                172,
                173,
                174,
                175,
                176,
                177,
                178,
                179,
                180,
                181,
                182,
                183,
                184,
                185,
                186,
                187,
                188,
                189,
                190,
                191,
                192,
                193,
                194,
                195,
                196,
                197,
                198,
                199,
                200,
                201,
                202,
                203,
                204,
                205,
                206,
                207,
                208,
                209,
                210,
                211,
                212,
                213,
                214,
                215,
                216,
                217,
                218,
                219,
                220,
                221,
                222,
                223,
                224,
                225,
                226,
                227,
                228,
                229,
                230,
                231,
                232,
                233,
                234,
                235,
                236,
                237,
                238,
                239,
                240,
                241,
                242,
                243,
                244,
                245,
                246,
                247,
                248,
                249,
                250,
                251,
                252,
                253,
                254,
                255,
                256,
                257,
                258,
                259,
                260,
                261,
                262,
                263,
                264,
                265,
                266,
                267,
                268,
                269,
                270,
                271,
                272,
                273,
                274,
                275,
                276,
                277,
                278,
                279,
                280,
                281,
                282,
                283,
                284,
                285,
                286,
                287,
                288
            ],
            "LargestImagePixelValue": [
                5136,
                3743,
                4635,
                4512,
                5022,
                4567,
                4600,
                4181,
                4938,
                4631,
                5333,
                4793,
                5049,
                5011,
                6118,
                5392,
                5904,
                5542,
                6375,
                5742,
                6554,
                6367,
                6633,
                6591,
                7807,
                7003,
                7514,
                6945,
                7995,
                7272,
                8199,
                6995,
                8601,
                7286,
                8328,
                7814,
                9809,
                8675,
                9566,
                8023,
                9273,
                9216,
                10848,
                8539,
                9458,
                9642,
                8087,
                8996,
                3595,
                2756,
                3187,
                3705,
                4193,
                3119,
                3546,
                3510,
                3798,
                3605,
                3666,
                3973,
                4046,
                4124,
                4611,
                4418,
                4542,
                4765,
                5072,
                4942,
                5298,
                5436,
                5337,
                5713,
                5774,
                5692,
                5608,
                5672,
                6041,
                6347,
                6350,
                5948,
                6599,
                6169,
                6482,
                6473,
                7668,
                7111,
                7617,
                6759,
                7480,
                7828,
                8747,
                7080,
                7685,
                7971,
                6652,
                7574,
                3834,
                3287,
                3650,
                3787,
                3738,
                3596,
                3374,
                3372,
                3635,
                3469,
                3587,
                3794,
                3621,
                4292,
                4527,
                4358,
                4356,
                4649,
                4942,
                4816,
                5092,
                5332,
                5221,
                5539,
                5493,
                5571,
                5316,
                5664,
                5747,
                6104,
                6098,
                5823,
                6223,
                6059,
                6038,
                6252,
                7083,
                6630,
                7073,
                6397,
                7028,
                7217,
                8133,
                6588,
                7157,
                7472,
                6191,
                7146,
                2941,
                2936,
                2944,
                3518,
                3965,
                3041,
                3368,
                3411,
                3633,
                3499,
                3521,
                3475,
                3530,
                4070,
                4764,
                4276,
                4400,
                4655,
                4888,
                4865,
                5059,
                5310,
                5212,
                5504,
                5544,
                5496,
                5348,
                5677,
                5763,
                6101,
                6075,
                5856,
                6273,
                5975,
                6042,
                6226,
                6714,
                6535,
                6844,
                6366,
                6936,
                7099,
                7043,
                6323,
                6576,
                7371,
                6040,
                6960,
                4959,
                2857,
                3266,
                3957,
                3430,
                3391,
                3368,
                3411,
                3606,
                3462,
                3534,
                3424,
                3490,
                4168,
                4547,
                4351,
                4420,
                4660,
                4894,
                4814,
                5031,
                5294,
                5189,
                5435,
                5481,
                5470,
                5281,
                5690,
                5725,
                5933,
                6119,
                5769,
                6169,
                5983,
                6047,
                6099,
                6853,
                6281,
                6830,
                6295,
                6346,
                6992,
                7883,
                6333,
                6908,
                7285,
                5967,
                6881,
                3389,
                3019,
                2763,
                3439,
                3095,
                3103,
                3329,
                3433,
                3630,
                3503,
                3578,
                3444,
                3502,
                4139,
                4718,
                4428,
                4405,
                4553,
                4816,
                4854,
                5011,
                5266,
                5038,
                5442,
                5448,
                5482,
                5257,
                5606,
                5837,
                6056,
                6057,
                5909,
                6174,
                5966,
                6018,
                6119,
                6790,
                6409,
                6702,
                6241,
                6259,
                7057,
                7810,
                6203,
                6936,
                7175,
                5973,
                6762
            ],
            "TriggerTime": [
                75.0,
                975.0,
                150.0,
                1050.0,
                225.0,
                1125.0,
                300.0,
                1200.0,
                375.0,
                1275.0,
                450.0,
                1350.0,
                525.0,
                1425.0,
                600.0,
                1500.0,
                675.0,
                1575.0,
                750.0,
                1650.0,
                825.0,
                1800.0,
                900.0,
                1725.0,
                75.0,
                975.0,
                150.0,
                1050.0,
                225.0,
                1125.0,
                300.0,
                1200.0,
                375.0,
                1275.0,
                450.0,
                1350.0,
                525.0,
                1425.0,
                600.0,
                1500.0,
                675.0,
                1575.0,
                750.0,
                1650.0,
                825.0,
                1800.0,
                900.0,
                1725.0,
                1875.0,
                2775.0,
                1950.0,
                2850.0,
                2025.0,
                2925.0,
                2100.0,
                3000.0,
                2175.0,
                3075.0,
                2250.0,
                3150.0,
                2325.0,
                3225.0,
                2400.0,
                3300.0,
                2475.0,
                3375.0,
                2550.0,
                3450.0,
                2625.0,
                3600.0,
                2700.0,
                3525.0,
                1875.0,
                2775.0,
                1950.0,
                2850.0,
                2025.0,
                2925.0,
                2100.0,
                3000.0,
                2175.0,
                3075.0,
                2250.0,
                3150.0,
                2325.0,
                3225.0,
                2400.0,
                3300.0,
                2475.0,
                3375.0,
                2550.0,
                3450.0,
                2625.0,
                3600.0,
                2700.0,
                3525.0,
                3675.0,
                4575.0,
                3750.0,
                4650.0,
                3825.0,
                4725.0,
                3900.0,
                4800.0,
                3975.0,
                4875.0,
                4050.0,
                4950.0,
                4125.0,
                5025.0,
                4200.0,
                5100.0,
                4275.0,
                5175.0,
                4350.0,
                5250.0,
                4425.0,
                5400.0,
                4500.0,
                5325.0,
                3675.0,
                4575.0,
                3750.0,
                4650.0,
                3825.0,
                4725.0,
                3900.0,
                4800.0,
                3975.0,
                4875.0,
                4050.0,
                4950.0,
                4125.0,
                5025.0,
                4200.0,
                5100.0,
                4275.0,
                5175.0,
                4350.0,
                5250.0,
                4425.0,
                5400.0,
                4500.0,
                5325.0,
                5475.0,
                6375.0,
                5550.0,
                6450.0,
                5625.0,
                6525.0,
                5700.0,
                6600.0,
                5775.0,
                6675.0,
                5850.0,
                6750.0,
                5925.0,
                6825.0,
                6000.0,
                6900.0,
                6075.0,
                6975.0,
                6150.0,
                7050.0,
                6225.0,
                7200.0,
                6300.0,
                7125.0,
                5475.0,
                6375.0,
                5550.0,
                6450.0,
                5625.0,
                6525.0,
                5700.0,
                6600.0,
                5775.0,
                6675.0,
                5850.0,
                6750.0,
                5925.0,
                6825.0,
                6000.0,
                6900.0,
                6075.0,
                6975.0,
                6150.0,
                7050.0,
                6225.0,
                7200.0,
                6300.0,
                7125.0,
                7275.0,
                8175.0,
                7350.0,
                8250.0,
                7425.0,
                8325.0,
                7500.0,
                8400.0,
                7575.0,
                8475.0,
                7650.0,
                8550.0,
                7725.0,
                8625.0,
                7800.0,
                8700.0,
                7875.0,
                8775.0,
                7950.0,
                8850.0,
                8025.0,
                9000.0,
                8100.0,
                8925.0,
                7275.0,
                8175.0,
                7350.0,
                8250.0,
                7425.0,
                8325.0,
                7500.0,
                8400.0,
                7575.0,
                8475.0,
                7650.0,
                8550.0,
                7725.0,
                8625.0,
                7800.0,
                8700.0,
                7875.0,
                8775.0,
                7950.0,
                8850.0,
                8025.0,
                9000.0,
                8100.0,
                8925.0,
                9075.0,
                9975.0,
                9150.0,
                10050.0,
                9225.0,
                10125.0,
                9300.0,
                10200.0,
                9375.0,
                10275.0,
                9450.0,
                10350.0,
                9525.0,
                10425.0,
                9600.0,
                10500.0,
                9675.0,
                10575.0,
                9750.0,
                10650.0,
                9825.0,
                10800.0,
                9900.0,
                10725.0,
                9075.0,
                9975.0,
                9150.0,
                10050.0,
                9225.0,
                10125.0,
                9300.0,
                10200.0,
                9375.0,
                10275.0,
                9450.0,
                10350.0,
                9525.0,
                10425.0,
                9600.0,
                10500.0,
                9675.0,
                10575.0,
                9750.0,
                10650.0,
                9825.0,
                10800.0,
                9900.0,
                10725.0
            ],
            "WindowCenter": [
                3081.0,
                2245.0,
                2781.0,
                2707.0,
                3013.0,
                2740.0,
                2760.0,
                2508.0,
                2962.0,
                2778.0,
                3199.0,
                2875.0,
                3029.0,
                3006.0,
                3670.0,
                3235.0,
                3542.0,
                3325.0,
                3825.0,
                3445.0,
                3932.0,
                3820.0,
                3979.0,
                3954.0,
                4684.0,
                4201.0,
                4508.0,
                4167.0,
                4797.0,
                4363.0,
                4919.0,
                4197.0,
                5160.0,
                4371.0,
                4996.0,
                4688.0,
                5885.0,
                5205.0,
                5739.0,
                4813.0,
                5563.0,
                5529.0,
                6508.0,
                5123.0,
                5674.0,
                5785.0,
                4852.0,
                5397.0,
                2157.0,
                1653.0,
                1912.0,
                2223.0,
                2515.0,
                1871.0,
                2127.0,
                2106.0,
                2278.0,
                2163.0,
                2199.0,
                2383.0,
                2427.0,
                2474.0,
                2766.0,
                2650.0,
                2725.0,
                2859.0,
                3043.0,
                2965.0,
                3178.0,
                3261.0,
                3202.0,
                3427.0,
                3464.0,
                3415.0,
                3364.0,
                3403.0,
                3624.0,
                3808.0,
                3810.0,
                3568.0,
                3959.0,
                3701.0,
                3889.0,
                3883.0,
                4600.0,
                4266.0,
                4570.0,
                4055.0,
                4488.0,
                4696.0,
                5248.0,
                4248.0,
                4611.0,
                4782.0,
                3991.0,
                4544.0,
                2300.0,
                1972.0,
                2190.0,
                2272.0,
                2242.0,
                2157.0,
                2024.0,
                2023.0,
                2181.0,
                2081.0,
                2152.0,
                2276.0,
                2172.0,
                2575.0,
                2716.0,
                2614.0,
                2613.0,
                2789.0,
                2965.0,
                2889.0,
                3055.0,
                3199.0,
                3132.0,
                3323.0,
                3295.0,
                3342.0,
                3189.0,
                3398.0,
                3448.0,
                3662.0,
                3658.0,
                3493.0,
                3733.0,
                3635.0,
                3622.0,
                3751.0,
                4249.0,
                3978.0,
                4243.0,
                3838.0,
                4216.0,
                4330.0,
                4879.0,
                3952.0,
                4294.0,
                4483.0,
                3714.0,
                4287.0,
                1764.0,
