{
    "AcquisitionMatrixPE": 88,
    "AcquisitionNumber": 1,
    "AcquisitionTime": "13:57:39.000000",
    "BodyPartExamined": "BRAIN",
    "CoilString": "48HAP",
    "ConversionSoftware": "dcm2niix",
    "ConversionSoftwareVersion": "v1.0.20190410  GCC6.3.0",
    "DeviceSerialNumber": "0000000319335MR2",
    "EchoTime": 0.03,
    "EffectiveEchoSpacing": 0.000564,
    "FlipAngle": 75,
    "ImageOrientationPatientDICOM": [
        1,
        0,
        0,
        0,
        1,
        0
    ],
    "ImageType": [
        "ORIGINAL",
        "PRIMARY",
        "OTHER"
    ],
    "ImagingFrequency": 127.753,
    "InPlanePhaseEncodingDirectionDICOM": "COL",
    "InstitutionName": "Iowa_MRRF",
    "IntendedFor": [
        "func/sub-10054_task-ThalHi_run-005_bold.nii.gz",
        "func/sub-10054_task-ThalHi_run-006_bold.nii.gz",
        "func/sub-10054_task-ThalHi_run-007_bold.nii.gz",
        "func/sub-10054_task-ThalHi_run-008_bold.nii.gz"
    ],
    "MRAcquisitionType": "2D",
    "MagneticFieldStrength": 3,
    "Manufacturer": "GE",
    "ManufacturersModelName": "SIGNA_Premier",
    "Modality": "MR",
    "PatientPosition": "HFS",
    "PercentPhaseFOV": 100,
    "PhaseEncodingDirection": "j",
    "PhaseEncodingPolarityGE": "Flipped",
    "PixelBandwidth": 3906.25,
    "ProcedureStepDescription": "HWANG_NET",
    "ProtocolName": "EPI_FM_pepolar=0",
    "ReconMatrixPE": 128,
    "RepetitionTime": 1.8,
    "SAR": 0.0743643,
    "ScanOptions": "SAT_GEMS_EDR_GEMS_MP_GEMS_EPI_GEMS_HYPERBAND_GEMS_FS",
    "ScanningSequence": "EP_GR",
    "SequenceVariant": "SS",
    "SeriesDescription": "EPI_FM_pepolar=0",
    "SeriesNumber": 10,
    "SliceThickness": 2.5,
    "SliceTiming": [
        0,
        0.9,
        0.075,
        0.975,
        0.15,
        1.05,
        0.225,
        1.125,
        0.3,
        1.2,
        0.375,
        1.275,
        0.45,
        1.35,
        0.525,
        1.425,
        0.6,
        1.5,
        0.675,
        1.575,
        0.75,
        1.725,
        0.825,
        1.65,
        0,
        0.9,
        0.075,
        0.975,
        0.15,
        1.05,
        0.225,
        1.125,
        0.3,
        1.2,
        0.375,
        1.275,
        0.45,
        1.35,
        0.525,
        1.425,
        0.6,
        1.5,
        0.675,
        1.575,
        0.75,
        1.725,
        0.825,
        1.65
    ],
    "SoftwareVersions": "28_LX_MR_Software_release:RX28.0_R05_2035.a",
    "SpacingBetweenSlices": 2.5,
    "StationName": "Iowa3T",
    "TotalReadoutTime": 0.071628,
    "TriggerDelayTime": 10650,
    "dcmmeta_affine": [
        [
            -1.7187999486923218,
            0.0,
            0.0,
            109.71379852294922
        ],
        [
            0.0,
            1.7187999486923218,
            0.0,
            -115.66899871826172
        ],
        [
            0.0,
            0.0,
            2.5,
            -70.48280334472656
        ],
        [
            0.0,
            0.0,
            0.0,
            1.0
        ]
    ],
    "dcmmeta_reorient_transform": [
        [
            0.0,
            -1.0,
            0.0,
            127.0
        ],
        [
            1.0,
            0.0,
            0.0,
            0.0
        ],
        [
            0.0,
            0.0,
            -1.0,
            47.0
        ],
        [
            0.0,
            0.0,
            0.0,
            1.0
        ]
    ],
    "dcmmeta_shape": [
        128,
        128,
        48,
        6
    ],
    "dcmmeta_slice_dim": 2,
    "dcmmeta_version": 0.6,
    "global": {
        "const": {
            "AcquisitionMatrix": [
                88,
                0,
                0,
                88
            ],
            "AcquisitionNumber": 1,
            "AcquisitionTime": "135739",
            "AnatomicRegionSequence": [
                {
                    "CodeMeaning": "Brain",
                    "CodeValue": "T-A0100",
                    "CodingSchemeDesignator": "SRT"
                }
            ],
            "AngioFlag": "N",
            "BeatRejectionFlag": "Y",
            "BitsAllocated": 16,
            "BitsStored": 16,
            "BodyPartExamined": "BRAIN",
            "CardiacNumberOfImages": 0,
            "Columns": 128,
            "ContentTime": "135739",
            "EchoNumbers": 1,
            "EchoTime": 30.0,
            "EchoTrainLength": 1,
            "FlipAngle": 75.0,
            "GroupLength_0X40_0X0": 98,
            "GroupLength_0X7FE0_0X0": 32780,
            "HeartRate": 0,
            "HighBit": 15,
            "ImageOrientationPatient": [
                1.0,
                -0.0,
                0.0,
                -0.0,
                1.0,
                0.0
            ],
            "ImageType": [
                "ORIGINAL",
                "PRIMARY",
                "OTHER"
            ],
            "ImagedNucleus": "1H",
            "ImagesInAcquisition": 288,
            "ImagingFrequency": 127.753449,
            "InPlanePhaseEncodingDirection": "COL",
            "MRAcquisitionType": "2D",
            "MagneticFieldStrength": 3.0,
            "Manufacturer": "GE MEDICAL SYSTEMS",
            "ManufacturerModelName": "SIGNA Premier",
            "Modality": "MR",
            "NumberOfAverages": 1.0,
            "NumberOfTemporalPositions": 6,
            "PercentPhaseFieldOfView": 100.0,
            "PercentSampling": 100.0,
            "PerformedLocation": "Iowa",
            "PerformedProcedureStepStartTime": "131827",
            "PhotometricInterpretation": "MONOCHROME2",
            "PixelBandwidth": 3906.25,
            "PixelRepresentation": 1,
            "PixelSpacing": [
                1.7188,
                1.7188
            ],
            "ProtocolName": "HWANG_NET_THALHI",
            "ReceiveCoilName": "48HAP",
            "ReconstructionDiameter": 220.0,
            "ReferencedPerformedProcedureStepSequence": [
                {
                    "ReferencedSOPClassUID": "1.2.840.10008.3.1.2.3.3",
                    "ReferencedSOPInstanceUID": "1.2.840.113619.6.475.53084124380419183580133952478655938163"
                }
            ],
            "RepetitionTime": 1800.0,
            "Rows": 128,
            "SAR": 0.0743643,
            "SamplesPerPixel": 1,
            "ScanOptions": [
                "SAT_GEMS",
                "EDR_GEMS",
                "MP_GEMS",
                "EPI_GEMS",
                "HYPERBAND_GEMS",
                "FS"
            ],
            "ScanningSequence": [
                "EP",
                "GR"
            ],
            "SequenceVariant": "SS",
            "SeriesDescription": "EPI FM pepolar=0",
            "SeriesNumber": 10,
            "SeriesTime": "135739",
            "SliceThickness": 2.5,
            "SmallestImagePixelValue": 0,
            "SoftwareVersions": [
                "28",
                "LX",
                "MR Software release:RX28.0_R05_2035.a"
            ],
            "SpacingBetweenSlices": 2.5,
            "SpecificCharacterSet": "ISO_IR 100",
            "StackID": "1",
            "StudyID": "1625",
            "StudyTime": "131834",
            "TriggerWindow": 0,
            "VariableFlipAngleFlag": "N"
        },
        "slices": {
            "InstanceNumber": [
                1,
                2,
                3,
                4,
                5,
                6,
                7,
                8,
                9,
                10,
                11,
                12,
                13,
                14,
                15,
                16,
                17,
                18,
                19,
                20,
                21,
                22,
                23,
                24,
                25,
                26,
                27,
                28,
                29,
                30,
                31,
                32,
                33,
                34,
                35,
                36,
                37,
                38,
                39,
                40,
                41,
                42,
                43,
                44,
                45,
                46,
                47,
                48,
                49,
                50,
                51,
                52,
                53,
                54,
                55,
                56,
                57,
                58,
                59,
                60,
                61,
                62,
                63,
                64,
                65,
                66,
                67,
                68,
                69,
                70,
                71,
                72,
                73,
                74,
                75,
                76,
                77,
                78,
                79,
                80,
                81,
                82,
                83,
                84,
                85,
                86,
                87,
                88,
                89,
                90,
                91,
                92,
                93,
                94,
                95,
                96,
                97,
                98,
                99,
                100,
                101,
                102,
                103,
                104,
                105,
                106,
                107,
                108,
                109,
                110,
                111,
                112,
                113,
                114,
                115,
                116,
                117,
                118,
                119,
                120,
                121,
                122,
                123,
                124,
                125,
                126,
                127,
                128,
                129,
                130,
                131,
                132,
                133,
                134,
                135,
                136,
                137,
                138,
                139,
                140,
                141,
                142,
                143,
                144,
                145,
                146,
                147,
                148,
                149,
                150,
                151,
                152,
                153,
                154,
                155,
                156,
                157,
                158,
                159,
                160,
                161,
                162,
                163,
                164,
                165,
                166,
                167,
                168,
                169,
                170,
                171,
                172,
                173,
                174,
                175,
                176,
                177,
                178,
                179,
                180,
                181,
                182,
                183,
                184,
                185,
                186,
                187,
                188,
                189,
                190,
                191,
                192,
                193,
                194,
                195,
                196,
                197,
                198,
                199,
                200,
                201,
                202,
                203,
                204,
                205,
                206,
                207,
                208,
                209,
                210,
                211,
                212,
                213,
                214,
                215,
                216,
                217,
                218,
                219,
                220,
                221,
                222,
                223,
                224,
                225,
                226,
                227,
                228,
                229,
                230,
                231,
                232,
                233,
                234,
                235,
                236,
                237,
                238,
                239,
                240,
                241,
                242,
                243,
                244,
                245,
                246,
                247,
                248,
                249,
                250,
                251,
                252,
                253,
                254,
                255,
                256,
                257,
                258,
                259,
                260,
                261,
                262,
                263,
                264,
                265,
                266,
                267,
                268,
                269,
                270,
                271,
                272,
                273,
                274,
                275,
                276,
                277,
                278,
                279,
                280,
                281,
                282,
                283,
                284,
                285,
                286,
                287,
                288
            ],
            "LargestImagePixelValue": [
                5379,
                3885,
                4699,
                4168,
                4945,
                4598,
                5673,
                4989,
                5638,
                5101,
                5587,
                5663,
                6645,
                6267,
                5813,
                5826,
                6249,
                5839,
                6248,
                6142,
                6765,
                6242,
                6313,
                6316,
                6678,
                6164,
                6939,
                6367,
                7039,
                6908,
                7381,
                7004,
                8437,
                7571,
                7488,
                7512,
                8394,
                9078,
                10724,
                10085,
                8803,
                8205,
                8337,
                7764,
                7675,
                7371,
                8659,
                8322,
                4858,
                3522,
                3817,
                3675,
                3817,
                3893,
                4416,
                4303,
                4482,
                4391,
                4422,
                4751,
                5445,
                5109,
                4840,
                4678,
                5092,
                4862,
                4969,
                4794,
                5545,
                5519,
                5179,
                5541,
                4991,
                5178,
                5109,
                5465,
                5451,
                5795,
                5759,
                6024,
                7564,
                6664,
                6583,
                6102,
                7040,
                7683,
                9135,
                8540,
                7414,
                7153,
                7040,
                6638,
                6485,
                6400,
                7544,
                7261,
                4201,
                2999,
                3424,
                3434,
                3718,
                3902,
                4248,
                4259,
                4386,
                4325,
                4282,
                4519,
                5097,
                4848,
                4538,
                4452,
                4832,
                4767,
                4791,
                4664,
                5406,
                5457,
                5105,
                5471,
                4782,
                5116,
                4969,
                5328,
                5241,
                5642,
                5545,
                6335,
                7204,
                6444,
                6282,
                5998,
                6531,
                7213,
                8563,
                8070,
                6971,
                6759,
                6714,
                6292,
                6047,
                6091,
                6715,
                6933,
                3333,
                3368,
                3418,
                3411,
                3677,
                3850,
                4063,
                4093,
                4343,
                4294,
                4284,
                4548,
                4818,
                4790,
                4505,
                4378,
                4517,
                4783,
                4785,
                4714,
                5266,
                5377,
                5093,
                5464,
                4673,
                5128,
                4879,
                5264,
                5238,
                5655,
                5524,
                6167,
                7095,
                6381,
                6110,
                6024,
                6471,
                7110,
                8364,
                7868,
                6703,
                6595,
                6471,
                6104,
                5980,
                5988,
                6976,
                6950,
                4961,
                4119,
                4389,
                3797,
                4186,
                3827,
                3975,
                4132,
                4312,
                4304,
                4261,
                4403,
                4934,
                4762,
                4567,
                4264,
                4768,
                4761,
                4845,
                4706,
                5317,
                5425,
                5148,
                5130,
                4728,
                5061,
                4848,
                5314,
                5181,
                5612,
                5526,
                6181,
                6970,
                6324,
                5989,
                5998,
                6392,
                6969,
                8283,
                7863,
                6685,
                6444,
                6493,
                6112,
                5973,
                5964,
                6912,
                6803,
                4470,
                3035,
                3305,
                3482,
                3592,
                3825,
                4121,
                4202,
                4282,
                4278,
                4311,
                4362,
                4777,
                4720,
                4375,
                4404,
                4713,
                4726,
                4855,
                4718,
                5282,
                5394,
                5148,
                5501,
                4754,
                5097,
                4920,
                5267,
                5239,
                5591,
                5572,
                6229,
                6870,
                6251,
                5744,
                6096,
                6375,
                7099,
                8249,
                7740,
                6672,
                6471,
                6447,
                6067,
                5961,
                5808,
                6850,
                6800
            ],
            "TriggerTime": [
                75.0,
                975.0,
                150.0,
                1050.0,
                225.0,
                1125.0,
                300.0,
                1200.0,
                375.0,
                1275.0,
                450.0,
                1350.0,
                525.0,
                1425.0,
                600.0,
                1500.0,
                675.0,
                1575.0,
                750.0,
                1650.0,
                825.0,
                1800.0,
                900.0,
                1725.0,
                75.0,
                975.0,
                150.0,
                1050.0,
                225.0,
                1125.0,
                300.0,
                1200.0,
                375.0,
                1275.0,
                450.0,
                1350.0,
                525.0,
                1425.0,
                600.0,
                1500.0,
                675.0,
                1575.0,
                750.0,
                1650.0,
                825.0,
                1800.0,
                900.0,
                1725.0,
                1875.0,
                2775.0,
                1950.0,
                2850.0,
                2025.0,
                2925.0,
                2100.0,
                3000.0,
                2175.0,
                3075.0,
                2250.0,
                3150.0,
                2325.0,
                3225.0,
                2400.0,
                3300.0,
                2475.0,
                3375.0,
                2550.0,
                3450.0,
                2625.0,
                3600.0,
                2700.0,
                3525.0,
                1875.0,
                2775.0,
                1950.0,
                2850.0,
                2025.0,
                2925.0,
                2100.0,
                3000.0,
                2175.0,
                3075.0,
                2250.0,
                3150.0,
                2325.0,
                3225.0,
                2400.0,
                3300.0,
                2475.0,
                3375.0,
                2550.0,
                3450.0,
                2625.0,
                3600.0,
                2700.0,
                3525.0,
                3675.0,
                4575.0,
                3750.0,
                4650.0,
                3825.0,
                4725.0,
                3900.0,
                4800.0,
                3975.0,
                4875.0,
                4050.0,
                4950.0,
                4125.0,
                5025.0,
                4200.0,
                5100.0,
                4275.0,
                5175.0,
                4350.0,
                5250.0,
                4425.0,
                5400.0,
                4500.0,
                5325.0,
                3675.0,
                4575.0,
                3750.0,
                4650.0,
                3825.0,
                4725.0,
                3900.0,
                4800.0,
                3975.0,
                4875.0,
                4050.0,
                4950.0,
                4125.0,
                5025.0,
                4200.0,
                5100.0,
                4275.0,
                5175.0,
                4350.0,
                5250.0,
                4425.0,
                5400.0,
                4500.0,
                5325.0,
                5475.0,
                6375.0,
                5550.0,
                6450.0,
                5625.0,
                6525.0,
                5700.0,
                6600.0,
                5775.0,
                6675.0,
                5850.0,
                6750.0,
                5925.0,
                6825.0,
                6000.0,
                6900.0,
                6075.0,
                6975.0,
                6150.0,
                7050.0,
                6225.0,
                7200.0,
                6300.0,
                7125.0,
                5475.0,
                6375.0,
                5550.0,
                6450.0,
                5625.0,
                6525.0,
                5700.0,
                6600.0,
                5775.0,
                6675.0,
                5850.0,
                6750.0,
                5925.0,
                6825.0,
                6000.0,
                6900.0,
                6075.0,
                6975.0,
                6150.0,
                7050.0,
                6225.0,
                7200.0,
                6300.0,
                7125.0,
                7275.0,
                8175.0,
                7350.0,
                8250.0,
                7425.0,
                8325.0,
                7500.0,
                8400.0,
                7575.0,
                8475.0,
                7650.0,
                8550.0,
                7725.0,
                8625.0,
                7800.0,
                8700.0,
                7875.0,
                8775.0,
                7950.0,
                8850.0,
                8025.0,
                9000.0,
                8100.0,
                8925.0,
                7275.0,
                8175.0,
                7350.0,
                8250.0,
                7425.0,
                8325.0,
                7500.0,
                8400.0,
                7575.0,
                8475.0,
                7650.0,
                8550.0,
                7725.0,
                8625.0,
                7800.0,
                8700.0,
                7875.0,
                8775.0,
                7950.0,
                8850.0,
                8025.0,
                9000.0,
                8100.0,
                8925.0,
                9075.0,
                9975.0,
                9150.0,
                10050.0,
                9225.0,
                10125.0,
                9300.0,
                10200.0,
                9375.0,
                10275.0,
                9450.0,
                10350.0,
                9525.0,
                10425.0,
                9600.0,
                10500.0,
                9675.0,
                10575.0,
                9750.0,
                10650.0,
                9825.0,
                10800.0,
                9900.0,
                10725.0,
                9075.0,
                9975.0,
                9150.0,
                10050.0,
                9225.0,
                10125.0,
                9300.0,
                10200.0,
                9375.0,
                10275.0,
                9450.0,
                10350.0,
                9525.0,
                10425.0,
                9600.0,
                10500.0,
                9675.0,
                10575.0,
                9750.0,
                10650.0,
                9825.0,
                10800.0,
                9900.0,
                10725.0
            ],
            "WindowCenter": [
                3227.0,
                2331.0,
                2819.0,
                2500.0,
                2967.0,
                2758.0,
                3403.0,
                2993.0,
                3382.0,
                3060.0,
                3352.0,
                3397.0,
                3987.0,
                3760.0,
                3487.0,
                3495.0,
                3749.0,
                3503.0,
                3748.0,
                3685.0,
                4059.0,
                3745.0,
                3787.0,
                3789.0,
                4006.0,
                3698.0,
                4163.0,
                3820.0,
                4223.0,
                4144.0,
                4428.0,
                4202.0,
                5062.0,
                4542.0,
                4492.0,
                4507.0,
                5036.0,
                5446.0,
                6434.0,
                6051.0,
                5281.0,
                4923.0,
                5002.0,
                4658.0,
                4605.0,
                4422.0,
                5195.0,
                4993.0,
                2914.0,
                2113.0,
                2290.0,
                2205.0,
                2290.0,
                2335.0,
                2649.0,
                2581.0,
                2689.0,
                2634.0,
                2653.0,
                2850.0,
                3267.0,
                3065.0,
                2904.0,
                2806.0,
                3055.0,
                2917.0,
                2981.0,
                2876.0,
                3327.0,
                3311.0,
                3107.0,
                3324.0,
                2994.0,
                3106.0,
                3065.0,
                3279.0,
                3270.0,
                3477.0,
                3455.0,
                3614.0,
                4538.0,
                3998.0,
                3949.0,
                3661.0,
                4224.0,
                4609.0,
                5481.0,
                5124.0,
                4448.0,
                4291.0,
                4224.0,
                3982.0,
                3891.0,
                3840.0,
                4526.0,
                4356.0,
                2520.0,
                1799.0,
                2054.0,
                2060.0,
                2230.0,
                2341.0,
                2548.0,
                2555.0,
                2631.0,
                2595.0,
                2569.0,
                2711.0,
                3058.0,
                2908.0,
                2722.0,
                2671.0,
                2899.0,
                2860.0,
                2874.0,
                2798.0,
                3243.0,
                3274.0,
                3063.0,
                3282.0,
                2869.0,
                3069.0,
                2981.0,
                3196.0,
                3144.0,
                3385.0,
                3327.0,
                3801.0,
                4322.0,
                3866.0,
                3769.0,
                3598.0,
                3918.0,
                4327.0,
                5137.0,
                4842.0,
                4182.0,
                4055.0,
                4028.0,
