{
    "AcquisitionMatrixPE": 88,
    "AcquisitionNumber": 1,
    "AcquisitionTime": "12:13:36.000000",
    "BodyPartExamined": "BRAIN",
    "CoilString": "48HAP",
    "ConversionSoftware": "dcm2niix",
    "ConversionSoftwareVersion": "v1.0.20190410  GCC6.3.0",
    "DeviceSerialNumber": "0000000319335MR2",
    "EchoTime": 0.03,
    "EffectiveEchoSpacing": 0.000564,
    "FlipAngle": 75,
    "ImageOrientationPatientDICOM": [
        1,
        0,
        0,
        0,
        1,
        0
    ],
    "ImageType": [
        "ORIGINAL",
        "PRIMARY",
        "OTHER"
    ],
    "ImagingFrequency": 127.753,
    "InPlanePhaseEncodingDirectionDICOM": "COL",
    "InstitutionName": "Iowa_MRRF",
    "IntendedFor": [
        "func/sub-10170_task-ThalHi_run-001_bold.nii.gz",
        "func/sub-10170_task-ThalHi_run-002_bold.nii.gz",
        "func/sub-10170_task-ThalHi_run-003_bold.nii.gz",
        "func/sub-10170_task-ThalHi_run-004_bold.nii.gz"
    ],
    "MRAcquisitionType": "2D",
    "MagneticFieldStrength": 3,
    "Manufacturer": "GE",
    "ManufacturersModelName": "SIGNA_Premier",
    "Modality": "MR",
    "PatientPosition": "HFS",
    "PercentPhaseFOV": 100,
    "PhaseEncodingDirection": "j",
    "PhaseEncodingPolarityGE": "Flipped",
    "PixelBandwidth": 3906.25,
    "ProcedureStepDescription": "HWANG_NET",
    "ProtocolName": "EPI_FM_pepolar=0",
    "ReconMatrixPE": 128,
    "RepetitionTime": 1.8,
    "SAR": 0.0991175,
    "ScanOptions": "SAT_GEMS_EDR_GEMS_MP_GEMS_EPI_GEMS_HYPERBAND_GEMS_FS",
    "ScanningSequence": "EP_GR",
    "SequenceVariant": "SS",
    "SeriesDescription": "EPI_FM_pepolar=0",
    "SeriesNumber": 4,
    "SliceThickness": 2.5,
    "SliceTiming": [
        0,
        0.9,
        0.075,
        0.975,
        0.15,
        1.05,
        0.225,
        1.125,
        0.3,
        1.2,
        0.375,
        1.275,
        0.45,
        1.35,
        0.525,
        1.425,
        0.6,
        1.5,
        0.675,
        1.575,
        0.75,
        1.725,
        0.825,
        1.65,
        0,
        0.9,
        0.075,
        0.975,
        0.15,
        1.05,
        0.225,
        1.125,
        0.3,
        1.2,
        0.375,
        1.275,
        0.45,
        1.35,
        0.525,
        1.425,
        0.6,
        1.5,
        0.675,
        1.575,
        0.75,
        1.725,
        0.825,
        1.65
    ],
    "SoftwareVersions": "28_LX_MR_Software_release:RX28.0_R05_2035.a",
    "SpacingBetweenSlices": 2.5,
    "StationName": "Iowa3T",
    "TotalReadoutTime": 0.071628,
    "TriggerDelayTime": 10650,
    "dcmmeta_affine": [
        [
            -1.7187999486923218,
            0.0,
            0.0,
            108.54180145263672
        ],
        [
            0.0,
            1.7187999486923218,
            0.0,
            -116.25499725341797
        ],
        [
            0.0,
            0.0,
            2.5,
            -36.49479675292969
        ],
        [
            0.0,
            0.0,
            0.0,
            1.0
        ]
    ],
    "dcmmeta_reorient_transform": [
        [
            0.0,
            -1.0,
            0.0,
            127.0
        ],
        [
            1.0,
            0.0,
            0.0,
            0.0
        ],
        [
            0.0,
            0.0,
            -1.0,
            47.0
        ],
        [
            0.0,
            0.0,
            0.0,
            1.0
        ]
    ],
    "dcmmeta_shape": [
        128,
        128,
        48,
        6
    ],
    "dcmmeta_slice_dim": 2,
    "dcmmeta_version": 0.6,
    "global": {
        "const": {
            "AcquisitionMatrix": [
                88,
                0,
                0,
                88
            ],
            "AcquisitionNumber": 1,
            "AnatomicRegionSequence": [
                {
                    "CodeMeaning": "Brain",
                    "CodeValue": "T-A0100",
                    "CodingSchemeDesignator": "SRT"
                }
            ],
            "AngioFlag": "N",
            "BeatRejectionFlag": "Y",
            "BitsAllocated": 16,
            "BitsStored": 16,
            "BodyPartExamined": "BRAIN",
            "CardiacNumberOfImages": 0,
            "Columns": 128,
            "EchoNumbers": 1,
            "EchoTime": 30.0,
            "EchoTrainLength": 1,
            "FlipAngle": 75.0,
            "GroupLength_0X40_0X0": 98,
            "GroupLength_0X7FE0_0X0": 32780,
            "HeartRate": 0,
            "HighBit": 15,
            "ImageOrientationPatient": [
                1.0,
                -0.0,
                0.0,
                -0.0,
                1.0,
                0.0
            ],
            "ImageType": [
                "ORIGINAL",
                "PRIMARY",
                "OTHER"
            ],
            "ImagedNucleus": "1H",
            "ImagesInAcquisition": 288,
            "ImagingFrequency": 127.753413,
            "InPlanePhaseEncodingDirection": "COL",
            "MRAcquisitionType": "2D",
            "MagneticFieldStrength": 3.0,
            "Manufacturer": "GE MEDICAL SYSTEMS",
            "ManufacturerModelName": "SIGNA Premier",
            "Modality": "MR",
            "NumberOfAverages": 1.0,
            "NumberOfTemporalPositions": 6,
            "PercentPhaseFieldOfView": 100.0,
            "PercentSampling": 100.0,
            "PerformedLocation": "Iowa",
            "PerformedProcedureStepStartTime": "120453",
            "PhotometricInterpretation": "MONOCHROME2",
            "PixelBandwidth": 3906.25,
            "PixelRepresentation": 1,
            "PixelSpacing": [
                1.7188,
                1.7188
            ],
            "ProtocolName": "HWANG_NET_THALHI",
            "ReceiveCoilName": "48HAP",
            "ReconstructionDiameter": 220.0,
            "ReferencedPerformedProcedureStepSequence": [
                {
                    "ReferencedSOPClassUID": "1.2.840.10008.3.1.2.3.3",
                    "ReferencedSOPInstanceUID": "1.2.840.113619.6.475.282908208627938911512731764415045112474"
                }
            ],
            "RepetitionTime": 1800.0,
            "Rows": 128,
            "SAR": 0.0991175,
            "SamplesPerPixel": 1,
            "ScanOptions": [
                "SAT_GEMS",
                "EDR_GEMS",
                "MP_GEMS",
                "EPI_GEMS",
                "HYPERBAND_GEMS",
                "FS"
            ],
            "ScanningSequence": [
                "EP",
                "GR"
            ],
            "SequenceVariant": "SS",
            "SeriesDescription": "EPI FM pepolar=0",
            "SeriesNumber": 4,
            "SeriesTime": "121336",
            "SliceThickness": 2.5,
            "SmallestImagePixelValue": 0,
            "SoftwareVersions": [
                "28",
                "LX",
                "MR Software release:RX28.0_R05_2035.a"
            ],
            "SpacingBetweenSlices": 2.5,
            "SpecificCharacterSet": "ISO_IR 100",
            "StackID": "1",
            "StudyID": "2496",
            "StudyTime": "120509",
            "TriggerWindow": 0,
            "VariableFlipAngleFlag": "N"
        },
        "slices": {
            "AcquisitionTime": [
                "121336",
                "121336",
                "121336",
                "121336",
                "121336",
                "121336",
                "121336",
                "121336",
                "121336",
                "121336",
                "121336",
                "121336",
                "121336",
                "121336",
                "121336",
                "121336",
                "121336",
                "121336",
                "121336",
                "121336",
                "121336",
                "121336",
                "121336",
                "121336",
                "121336",
                "121336",
                "121336",
                "121336",
                "121336",
                "121336",
                "121336",
                "121336",
                "121336",
                "121336",
                "121336",
                "121336",
                "121336",
                "121336",
                "121336",
                "121336",
                "121336",
                "121336",
                "121336",
                "121336",
                "121336",
                "121336",
                "121336",
                "121336",
                "121336",
                "121336",
                "121336",
                "121336",
                "121336",
                "121336",
                "121336",
                "121336",
                "121336",
                "121336",
                "121336",
                "121336",
                "121336",
                "121336",
                "121336",
                "121336",
                "121336",
                "121336",
                "121336",
                "121336",
                "121336",
                "121336",
                "121336",
                "121336",
                "121336",
                "121336",
                "121336",
                "121336",
                "121336",
                "121336",
                "121336",
                "121336",
                "121336",
                "121336",
                "121336",
                "121336",
                "121336",
                "121336",
                "121336",
                "121336",
                "121336",
                "121336",
                "121336",
                "121336",
                "121336",
                "121336",
                "121336",
                "121336",
                "121336",
                "121336",
                "121336",
                "121336",
                "121336",
                "121336",
                "121336",
                "121336",
                "121336",
                "121336",
                "121336",
                "121336",
                "121336",
                "121336",
                "121336",
                "121336",
                "121336",
                "121336",
                "121336",
                "121336",
                "121336",
                "121336",
                "121336",
                "121336",
                "121336",
                "121336",
                "121336",
                "121336",
                "121336",
                "121336",
                "121336",
                "121336",
                "121336",
                "121336",
                "121336",
                "121336",
                "121336",
                "121336",
                "121336",
                "121336",
                "121336",
                "121336",
                "121336",
                "121336",
                "121336",
                "121336",
                "121336",
                "121336",
                "121336",
                "121336",
                "121336",
                "121336",
                "121336",
                "121336",
                "121336",
                "121336",
                "121336",
                "121336",
                "121336",
                "121336",
                "121336",
                "121336",
                "121336",
                "121336",
                "121336",
                "121336",
                "121336",
                "121336",
                "121336",
                "121336",
                "121336",
                "121336",
                "121336",
                "121336",
                "121336",
                "121336",
                "121336",
                "121336",
                "121336",
                "121336",
                "121336",
                "121336",
                "121336",
                "121336",
                "121336",
                "121336",
                "121336",
                "121336",
                "121336",
                "121336",
                "121336",
                "121336",
                "121336",
                "121336",
                "121336",
                "121336",
                "121336",
                "121336",
                "121336",
                "121336",
                "121336",
                "121336",
                "121336",
                "121336",
                "121336",
                "121336",
                "121336",
                "121336",
                "121336",
                "121336",
                "121336",
                "121336",
                "121336",
                "121336",
                "121336",
                "121336",
                "121336",
                "121336",
                "121336",
                "121336",
                "121336",
                "121336",
                "121336",
                "121336",
                "121336",
                "121336",
                "121336",
                "121336",
                "121336",
                "121336",
                "121336",
                "121336",
                "121336",
                "121336",
                "121336",
                "121336",
                "121336",
                "121336",
                "121336",
                "121336",
                "121336",
                "121336",
                "121336",
                "121336",
                "121336",
                "121336",
                "121336",
                "121336",
                "121336",
                "121336",
                "121336",
                "121336",
                "121336",
                "121336",
                "121336",
                "121336",
                "121336",
                "121336",
                "121336",
                "121336",
                "121336",
                "121336",
                "121336",
                "121336",
                "121336",
                "121336",
                "121336",
                "121336",
                "121336",
                "121336",
                "121336",
                "121336",
                "121336",
                "121337",
                "121337",
                "121337",
                "121337",
                "121337",
                "121337",
                "121337",
                "121337",
                "121337",
                "121337",
                "121337",
                "121337",
                "121337",
                "121337",
                "121337",
                "121337",
                "121337",
                "121337",
                "121337"
            ],
            "ContentTime": [
                "121336",
                "121336",
                "121336",
                "121336",
                "121336",
                "121336",
                "121336",
                "121336",
                "121336",
                "121336",
                "121336",
                "121336",
                "121336",
                "121336",
                "121336",
                "121336",
                "121336",
                "121336",
                "121336",
                "121336",
                "121336",
                "121336",
                "121336",
                "121336",
                "121336",
                "121336",
                "121336",
                "121336",
                "121336",
                "121336",
                "121336",
                "121336",
                "121336",
                "121336",
                "121336",
                "121336",
                "121336",
                "121336",
                "121336",
                "121336",
                "121336",
                "121336",
                "121336",
                "121336",
                "121336",
                "121336",
                "121336",
                "121336",
                "121336",
                "121336",
                "121336",
                "121336",
                "121336",
                "121336",
                "121336",
                "121336",
                "121336",
                "121336",
                "121336",
                "121336",
                "121336",
                "121336",
                "121336",
                "121336",
                "121336",
                "121336",
                "121336",
                "121336",
                "121336",
                "121336",
                "121336",
                "121336",
                "121336",
                "121336",
                "121336",
                "121336",
                "121336",
                "121336",
                "121336",
                "121336",
                "121336",
                "121336",
                "121336",
                "121336",
                "121336",
                "121336",
                "121336",
                "121336",
                "121336",
                "121336",
                "121336",
                "121336",
                "121336",
                "121336",
                "121336",
                "121336",
                "121336",
                "121336",
                "121336",
                "121336",
                "121336",
                "121336",
                "121336",
                "121336",
                "121336",
                "121336",
                "121336",
                "121336",
                "121336",
                "121336",
                "121336",
                "121336",
                "121336",
                "121336",
                "121336",
                "121336",
                "121336",
                "121336",
                "121336",
                "121336",
                "121336",
                "121336",
                "121336",
                "121336",
                "121336",
                "121336",
                "121336",
                "121336",
                "121336",
                "121336",
                "121336",
                "121336",
                "121336",
                "121336",
                "121336",
                "121336",
                "121336",
                "121336",
                "121336",
                "121336",
                "121336",
                "121336",
                "121336",
                "121336",
                "121336",
                "121336",
                "121336",
                "121336",
                "121336",
                "121336",
                "121336",
                "121336",
                "121336",
                "121336",
                "121336",
                "121336",
                "121336",
                "121336",
                "121336",
                "121336",
                "121336",
                "121336",
                "121336",
                "121336",
                "121336",
                "121336",
                "121336",
                "121336",
                "121336",
                "121336",
                "121336",
                "121336",
                "121336",
                "121336",
                "121336",
                "121336",
                "121336",
                "121336",
                "121336",
                "121336",
                "121336",
                "121336",
                "121336",
                "121336",
                "121336",
                "121336",
                "121336",
                "121336",
                "121336",
                "121336",
                "121336",
                "121336",
                "121336",
                "121336",
                "121336",
                "121336",
                "121336",
                "121336",
                "121336",
                "121336",
                "121336",
                "121336",
                "121336",
                "121336",
                "121336",
                "121336",
                "121336",
                "121336",
                "121336",
                "121336",
                "121336",
                "121336",
                "121336",
                "121336",
                "121336",
                "121336",
                "121336",
                "121336",
                "121336",
                "121336",
                "121336",
                "121336",
                "121336",
                "121336",
                "121336",
                "121336",
                "121336",
                "121336",
                "121336",
                "121336",
                "121336",
                "121336",
                "121336",
                "121336",
                "121336",
                "121336",
                "121336",
                "121336",
                "121336",
                "121336",
                "121336",
                "121336",
                "121336",
                "121336",
                "121336",
                "121336",
                "121336",
                "121336",
                "121336",
                "121336",
                "121336",
                "121336",
                "121336",
                "121336",
                "121336",
                "121336",
                "121336",
                "121336",
                "121336",
                "121336",
                "121336",
                "121336",
                "121336",
                "121336",
                "121336",
                "121336",
                "121336",
                "121336",
                "121336",
                "121337",
                "121337",
                "121337",
                "121337",
                "121337",
                "121337",
                "121337",
                "121337",
                "121337",
                "121337",
                "121337",
                "121337",
                "121337",
                "121337",
                "121337",
                "121337",
                "121337",
                "121337",
                "121337"
            ],
            "InstanceNumber": [
                1,
                2,
                3,
                4,
                5,
                6,
                7,
                8,
                9,
                10,
                11,
                12,
                13,
                14,
                15,
                16,
                17,
                18,
                19,
                20,
                21,
                22,
                23,
                24,
                25,
                26,
                27,
                28,
                29,
                30,
                31,
                32,
                33,
                34,
                35,
                36,
                37,
                38,
                39,
                40,
                41,
                42,
                43,
                44,
                45,
                46,
                47,
                48,
                49,
                50,
                51,
                52,
                53,
                54,
                55,
                56,
                57,
                58,
                59,
                60,
                61,
                62,
                63,
                64,
                65,
                66,
                67,
                68,
                69,
                70,
                71,
                72,
                73,
                74,
                75,
                76,
                77,
                78,
                79,
                80,
                81,
                82,
                83,
                84,
                85,
                86,
                87,
                88,
                89,
                90,
                91,
                92,
                93,
                94,
                95,
                96,
                97,
                98,
                99,
                100,
                101,
                102,
                103,
                104,
                105,
                106,
                107,
                108,
                109,
                110,
                111,
                112,
                113,
                114,
                115,
                116,
                117,
                118,
                119,
                120,
                121,
                122,
                123,
                124,
                125,
                126,
                127,
                128,
                129,
                130,
                131,
                132,
                133,
                134,
                135,
                136,
                137,
                138,
                139,
                140,
                141,
                142,
                143,
                144,
                145,
                146,
                147,
                148,
                149,
                150,
                151,
                152,
                153,
                154,
                155,
                156,
                157,
                158,
                159,
                160,
                161,
                162,
                163,
                164,
                165,
                166,
                167,
                168,
                169,
                170,
                171,
                172,
                173,
                174,
                175,
                176,
                177,
                178,
                179,
                180,
                181,
                182,
                183,
                184,
                185,
                186,
                187,
                188,
                189,
                190,
                191,
                192,
                193,
                194,
                195,
                196,
                197,
                198,
                199,
                200,
                201,
                202,
                203,
                204,
                205,
                206,
                207,
                208,
                209,
                210,
                211,
                212,
                213,
                214,
                215,
                216,
                217,
                218,
                219,
                220,
                221,
                222,
                223,
                224,
                225,
                226,
                227,
                228,
                229,
                230,
                231,
                232,
                233,
                234,
                235,
                236,
                237,
                238,
                239,
                240,
                241,
                242,
                243,
                244,
                245,
                246,
                247,
                248,
                249,
                250,
                251,
                252,
                253,
                254,
                255,
                256,
                257,
                258,
                259,
                260,
                261,
                262,
                263,
                264,
                265,
                266,
                267,
                268,
                269,
                270,
                271,
                272,
                273,
                274,
                275,
                276,
                277,
                278,
                279,
                280,
                281,
                282,
                283,
                284,
                285,
                286,
                287,
                288
            ],
            "LargestImagePixelValue": [
                5129,
                3912,
                6163,
                6184,
                6695,
                5204,
                5637,
                5321,
                7294,
                6555,
                7105,
                6091,
                6072,
                5430,
                5550,
                5415,
                6008,
                5781,
                6489,
                6334,
                6300,
                6520,
                7124,
                7139,
                7832,
                7490,
                9337,
                8268,
                10493,
                9973,
                10683,
                10359,
                9613,
                9296,
                9968,
                8895,
                9381,
                9805,
                9874,
                10058,
                10187,
                10088,
                9977,
                10248,
                9772,
                9528,
                7195,
                2869,
                4117,
                3438,
                4384,
                4600,
                4951,
                4105,
                4166,
                4238,
                5443,
                5278,
                5401,
                4813,
                4495,
                4588,
                4297,
                4585,
                4606,
                4757,
                4785,
                5334,
                5091,
                5251,
                5639,
                5782,
                5839,
                6088,
                7253,
                6543,
                7948,
