{
    "AcquisitionMatrixPE": 88,
    "AcquisitionNumber": 1,
    "AcquisitionTime": "17:05:27.000000",
    "BodyPartExamined": "BRAIN",
    "CoilString": "48HAP",
    "ConversionSoftware": "dcm2niix",
    "ConversionSoftwareVersion": "v1.0.20190410  GCC6.3.0",
    "DeviceSerialNumber": "0000000319335MR2",
    "EchoTime": 0.03,
    "EffectiveEchoSpacing": 0.000564,
    "FlipAngle": 75,
    "ImageOrientationPatientDICOM": [
        1,
        0,
        0,
        0,
        1,
        0
    ],
    "ImageType": [
        "ORIGINAL",
        "PRIMARY",
        "OTHER"
    ],
    "ImagingFrequency": 127.754,
    "InPlanePhaseEncodingDirectionDICOM": "COL",
    "InstitutionName": "Iowa_MRRF",
    "MRAcquisitionType": "2D",
    "MagneticFieldStrength": 3,
    "Manufacturer": "GE",
    "ManufacturersModelName": "SIGNA_Premier",
    "Modality": "MR",
    "PatientPosition": "HFS",
    "PercentPhaseFOV": 100,
    "PhaseEncodingDirection": "j",
    "PhaseEncodingPolarityGE": "Flipped",
    "PixelBandwidth": 3906.25,
    "ProcedureStepDescription": "HWANG_NET",
    "ProtocolName": "EPI_FM_pepolar=0",
    "ReconMatrixPE": 128,
    "RepetitionTime": 1.8,
    "SAR": 0.156522,
    "ScanOptions": "SAT_GEMS_EDR_GEMS_MP_GEMS_EPI_GEMS_HYPERBAND_GEMS_FS",
    "ScanningSequence": "EP_GR",
    "SequenceVariant": "SS",
    "SeriesDescription": "EPI_FM_pepolar=0",
    "SeriesNumber": 10,
    "SliceThickness": 2.5,
    "SliceTiming": [
        0,
        0.9,
        0.075,
        0.975,
        0.15,
        1.05,
        0.225,
        1.125,
        0.3,
        1.2,
        0.375,
        1.275,
        0.45,
        1.35,
        0.525,
        1.425,
        0.6,
        1.5,
        0.675,
        1.575,
        0.75,
        1.725,
        0.825,
        1.65,
        0,
        0.9,
        0.075,
        0.975,
        0.15,
        1.05,
        0.225,
        1.125,
        0.3,
        1.2,
        0.375,
        1.275,
        0.45,
        1.35,
        0.525,
        1.425,
        0.6,
        1.5,
        0.675,
        1.575,
        0.75,
        1.725,
        0.825,
        1.65
    ],
    "SoftwareVersions": "28_LX_MR_Software_release:RX28.0_R04_2020.b",
    "SpacingBetweenSlices": 2.5,
    "StationName": "Iowa3T",
    "TotalReadoutTime": 0.071628,
    "TriggerDelayTime": 10650,
    "dcmmeta_affine": [
        [
            -1.7187999486923218,
            0.0,
            0.0,
            107.56513214111328
        ],
        [
            0.0,
            1.7187999486923218,
            0.0,
            -116.64566040039062
        ],
        [
            0.0,
            0.0,
            2.5,
            -30.634803771972656
        ],
        [
            0.0,
            0.0,
            0.0,
            1.0
        ]
    ],
    "dcmmeta_reorient_transform": [
        [
            0.0,
            -1.0,
            0.0,
            127.0
        ],
        [
            1.0,
            0.0,
            0.0,
            0.0
        ],
        [
            0.0,
            0.0,
            -1.0,
            47.0
        ],
        [
            0.0,
            0.0,
            0.0,
            1.0
        ]
    ],
    "dcmmeta_shape": [
        128,
        128,
        48,
        6
    ],
    "dcmmeta_slice_dim": 2,
    "dcmmeta_version": 0.6,
    "global": {
        "const": {
            "AcquisitionMatrix": [
                88,
                0,
                0,
                88
            ],
            "AcquisitionNumber": 1,
            "AcquisitionTime": "170527",
            "AnatomicRegionSequence": [
                {
                    "CodeMeaning": "Brain",
                    "CodeValue": "T-A0100",
                    "CodingSchemeDesignator": "SRT"
                }
            ],
            "AngioFlag": "N",
            "BeatRejectionFlag": "Y",
            "BitsAllocated": 16,
            "BitsStored": 16,
            "BodyPartExamined": "BRAIN",
            "CardiacNumberOfImages": 0,
            "Columns": 128,
            "ContentTime": "170527",
            "EchoNumbers": 1,
            "EchoTime": 30.0,
            "EchoTrainLength": 1,
            "FlipAngle": 75.0,
            "GroupLength_0X40_0X0": 98,
            "GroupLength_0X7FE0_0X0": 32780,
            "HeartRate": 0,
            "HighBit": 15,
            "ImageOrientationPatient": [
                1.0,
                -0.0,
                0.0,
                -0.0,
                1.0,
                0.0
            ],
            "ImageType": [
                "ORIGINAL",
                "PRIMARY",
                "OTHER"
            ],
            "ImagedNucleus": "1H",
            "ImagesInAcquisition": 288,
            "ImagingFrequency": 127.753926,
            "InPlanePhaseEncodingDirection": "COL",
            "MRAcquisitionType": "2D",
            "MagneticFieldStrength": 3.0,
            "Manufacturer": "GE MEDICAL SYSTEMS",
            "ManufacturerModelName": "SIGNA Premier",
            "Modality": "MR",
            "NumberOfAverages": 1.0,
            "NumberOfTemporalPositions": 6,
            "PercentPhaseFieldOfView": 100.0,
            "PercentSampling": 100.0,
            "PerformedLocation": "Iowa",
            "PerformedProcedureStepStartTime": "162244",
            "PhotometricInterpretation": "MONOCHROME2",
            "PixelBandwidth": 3906.25,
            "PixelRepresentation": 1,
            "PixelSpacing": [
                1.7188,
                1.7188
            ],
            "ProtocolName": "HWANG_NET_THALHI",
            "ReceiveCoilName": "48HAP",
            "ReconstructionDiameter": 220.0,
            "ReferencedPerformedProcedureStepSequence": [
                {
                    "ReferencedSOPClassUID": "1.2.840.10008.3.1.2.3.3",
                    "ReferencedSOPInstanceUID": "1.2.840.113619.6.475.27219716540907054498394572754608431586"
                }
            ],
            "RepetitionTime": 1800.0,
            "Rows": 128,
            "SAR": 0.156522,
            "SamplesPerPixel": 1,
            "ScanOptions": [
                "SAT_GEMS",
                "EDR_GEMS",
                "MP_GEMS",
                "EPI_GEMS",
                "HYPERBAND_GEMS",
                "FS"
            ],
            "ScanningSequence": [
                "EP",
                "GR"
            ],
            "SequenceVariant": "SS",
            "SeriesDescription": "EPI FM pepolar=0",
            "SeriesNumber": 10,
            "SeriesTime": "170527",
            "SliceThickness": 2.5,
            "SmallestImagePixelValue": 0,
            "SoftwareVersions": [
                "28",
                "LX",
                "MR Software release:RX28.0_R04_2020.b"
            ],
            "SpacingBetweenSlices": 2.5,
            "SpecificCharacterSet": "ISO_IR 100",
            "StackID": "1",
            "StudyID": "799",
            "StudyTime": "162252",
            "TriggerWindow": 0,
            "VariableFlipAngleFlag": "N"
        },
        "slices": {
            "InstanceNumber": [
                1,
                2,
                3,
                4,
                5,
                6,
                7,
                8,
                9,
                10,
                11,
                12,
                13,
                14,
                15,
                16,
                17,
                18,
                19,
                20,
                21,
                22,
                23,
                24,
                25,
                26,
                27,
                28,
                29,
                30,
                31,
                32,
                33,
                34,
                35,
                36,
                37,
                38,
                39,
                40,
                41,
                42,
                43,
                44,
                45,
                46,
                47,
                48,
                49,
                50,
                51,
                52,
                53,
                54,
                55,
                56,
                57,
                58,
                59,
                60,
                61,
                62,
                63,
                64,
                65,
                66,
                67,
                68,
                69,
                70,
                71,
                72,
                73,
                74,
                75,
                76,
                77,
                78,
                79,
                80,
                81,
                82,
                83,
                84,
                85,
                86,
                87,
                88,
                89,
                90,
                91,
                92,
                93,
                94,
                95,
                96,
                97,
                98,
                99,
                100,
                101,
                102,
                103,
                104,
                105,
                106,
                107,
                108,
                109,
                110,
                111,
                112,
                113,
                114,
                115,
                116,
                117,
                118,
                119,
                120,
                121,
                122,
                123,
                124,
                125,
                126,
                127,
                128,
                129,
                130,
                131,
                132,
                133,
                134,
                135,
                136,
                137,
                138,
                139,
                140,
                141,
                142,
                143,
                144,
                145,
                146,
                147,
                148,
                149,
                150,
                151,
                152,
                153,
                154,
                155,
                156,
                157,
                158,
                159,
                160,
                161,
                162,
                163,
                164,
                165,
                166,
                167,
                168,
                169,
                170,
                171,
                172,
                173,
                174,
                175,
                176,
                177,
                178,
                179,
                180,
                181,
                182,
                183,
                184,
                185,
                186,
                187,
                188,
                189,
                190,
                191,
                192,
                193,
                194,
                195,
                196,
                197,
                198,
                199,
                200,
                201,
                202,
                203,
                204,
                205,
                206,
                207,
                208,
                209,
                210,
                211,
                212,
                213,
                214,
                215,
                216,
                217,
                218,
                219,
                220,
                221,
                222,
                223,
                224,
                225,
                226,
                227,
                228,
                229,
                230,
                231,
                232,
                233,
                234,
                235,
                236,
                237,
                238,
                239,
                240,
                241,
                242,
                243,
                244,
                245,
                246,
                247,
                248,
                249,
                250,
                251,
                252,
                253,
                254,
                255,
                256,
                257,
                258,
                259,
                260,
                261,
                262,
                263,
                264,
                265,
                266,
                267,
                268,
                269,
                270,
                271,
                272,
                273,
                274,
                275,
                276,
                277,
                278,
                279,
                280,
                281,
                282,
                283,
                284,
                285,
                286,
                287,
                288
            ],
            "LargestImagePixelValue": [
                5689,
                5551,
                6235,
                5979,
                6743,
                5539,
                7981,
                5796,
                6806,
                6233,
                6787,
                6798,
                6943,
                6969,
                7699,
                7395,
                7989,
                7207,
                8347,
                7471,
                8512,
                7263,
                8115,
                8071,
                9141,
                8236,
                10150,
                9742,
                10758,
                11031,
                11138,
                11464,
                11797,
                12077,
                12000,
                10776,
                11993,
                11459,
                11961,
                11428,
                13206,
                11423,
                11556,
                12073,
                12631,
                10375,
                5353,
                2864,
                4770,
                4343,
                4622,
                4265,
                4615,
                4353,
                5888,
                4924,
                4899,
                5200,
                5281,
                5635,
                5333,
                5393,
                5809,
                5777,
                6061,
                6003,
                6068,
                6200,
                6234,
                6191,
                6316,
                6778,
                6785,
                6589,
                7583,
                8661,
                8610,
                9241,
                8577,
                9070,
                9211,
                9709,
                9423,
                8745,
                9316,
                9292,
                9696,
                9590,
                10759,
                9370,
                9535,
                10248,
                10913,
                8615,
                4227,
                2548,
                4230,
                4107,
                4324,
                4002,
                4260,
                4237,
                5222,
                4842,
                4716,
                5043,
                5052,
                5372,
                5239,
                5229,
                5401,
                5473,
                5812,
                5770,
                5775,
                5943,
                6101,
                6067,
                5972,
                6591,
                6302,
                6375,
                7174,
                8017,
                7876,
                8427,
                7900,
                8332,
                8926,
                9217,
                8846,
                8170,
                8515,
                8464,
                9043,
                9031,
                9815,
                8798,
                8854,
                9640,
                10189,
                8086,
                3921,
                2466,
                4430,
                4067,
                4246,
                3949,
                4190,
                4142,
                5230,
                4726,
                4686,
                4958,
                4958,
                5252,
                5122,
                5239,
                5319,
                5515,
                5710,
                5696,
                5678,
                5898,
                6071,
                6073,
                5987,
                6556,
                6177,
                6435,
                7016,
                7890,
                7815,
                8181,
                7622,
                8063,
                8801,
                8929,
                8433,
                7742,
                8271,
                8302,
                8732,
                8812,
                9606,
                8538,
                8572,
                9423,
                9788,
                7829,
                3749,
                2558,
                4135,
                4075,
                4291,
                3936,
                4189,
                4203,
                4890,
                4752,
                4687,
                5006,
                4995,
                5300,
                5154,
                5226,
                5363,
                5500,
                5676,
                5718,
                5673,
                5885,
                6056,
                6014,
                5873,
                6524,
                6182,
                6401,
                6957,
                7767,
                7787,
                8007,
                7647,
                8062,
                8534,
                8870,
                8356,
                7869,
                8110,
                8162,
                8727,
                8846,
                9510,
                8300,
                8465,
                9277,
                9176,
                7862,
                3773,
                2476,
                4130,
                4055,
                4205,
                3931,
                4116,
                4118,
                5211,
                4706,
                4640,
                4934,
                4964,
                5318,
                5116,
                5233,
                5345,
                5603,
                5786,
                5719,
                5737,
                5902,
                6066,
                6079,
                5951,
                6539,
                6181,
                6429,
                6921,
                7838,
                7762,
                8123,
                7612,
                7924,
                8537,
                8568,
                8317,
                7923,
                8015,
                8234,
                8680,
                8631,
                9462,
                8405,
                8368,
                9302,
                9647,
                7682,
                3764,
                2522
            ],
            "TriggerTime": [
                75.0,
                975.0,
                150.0,
                1050.0,
                225.0,
                1125.0,
                300.0,
                1200.0,
                375.0,
                1275.0,
                450.0,
                1350.0,
                525.0,
                1425.0,
                600.0,
                1500.0,
                675.0,
                1575.0,
                750.0,
                1650.0,
                825.0,
                1800.0,
                900.0,
                1725.0,
                75.0,
                975.0,
                150.0,
                1050.0,
                225.0,
                1125.0,
                300.0,
                1200.0,
                375.0,
                1275.0,
                450.0,
                1350.0,
                525.0,
                1425.0,
                600.0,
                1500.0,
                675.0,
                1575.0,
                750.0,
                1650.0,
                825.0,
                1800.0,
                900.0,
                1725.0,
                1875.0,
                2775.0,
                1950.0,
                2850.0,
                2025.0,
                2925.0,
                2100.0,
                3000.0,
                2175.0,
                3075.0,
                2250.0,
                3150.0,
                2325.0,
                3225.0,
                2400.0,
                3300.0,
                2475.0,
                3375.0,
                2550.0,
                3450.0,
                2625.0,
                3600.0,
                2700.0,
                3525.0,
                1875.0,
                2775.0,
                1950.0,
                2850.0,
                2025.0,
                2925.0,
                2100.0,
                3000.0,
                2175.0,
                3075.0,
                2250.0,
                3150.0,
                2325.0,
                3225.0,
                2400.0,
                3300.0,
                2475.0,
                3375.0,
                2550.0,
                3450.0,
                2625.0,
                3600.0,
                2700.0,
                3525.0,
                3675.0,
                4575.0,
                3750.0,
                4650.0,
                3825.0,
                4725.0,
                3900.0,
                4800.0,
                3975.0,
                4875.0,
                4050.0,
                4950.0,
                4125.0,
                5025.0,
                4200.0,
                5100.0,
                4275.0,
                5175.0,
                4350.0,
                5250.0,
                4425.0,
                5400.0,
                4500.0,
                5325.0,
                3675.0,
                4575.0,
                3750.0,
                4650.0,
                3825.0,
                4725.0,
                3900.0,
                4800.0,
                3975.0,
                4875.0,
                4050.0,
                4950.0,
                4125.0,
                5025.0,
                4200.0,
                5100.0,
                4275.0,
                5175.0,
                4350.0,
                5250.0,
                4425.0,
                5400.0,
                4500.0,
                5325.0,
                5475.0,
                6375.0,
                5550.0,
                6450.0,
                5625.0,
                6525.0,
                5700.0,
                6600.0,
                5775.0,
                6675.0,
                5850.0,
                6750.0,
                5925.0,
                6825.0,
                6000.0,
                6900.0,
                6075.0,
                6975.0,
                6150.0,
                7050.0,
                6225.0,
                7200.0,
                6300.0,
                7125.0,
                5475.0,
                6375.0,
                5550.0,
                6450.0,
                5625.0,
                6525.0,
                5700.0,
                6600.0,
                5775.0,
                6675.0,
                5850.0,
                6750.0,
                5925.0,
                6825.0,
                6000.0,
                6900.0,
                6075.0,
                6975.0,
                6150.0,
                7050.0,
                6225.0,
                7200.0,
                6300.0,
                7125.0,
                7275.0,
                8175.0,
                7350.0,
                8250.0,
                7425.0,
                8325.0,
                7500.0,
                8400.0,
                7575.0,
                8475.0,
                7650.0,
                8550.0,
                7725.0,
                8625.0,
                7800.0,
                8700.0,
                7875.0,
                8775.0,
                7950.0,
                8850.0,
                8025.0,
                9000.0,
                8100.0,
                8925.0,
                7275.0,
                8175.0,
                7350.0,
                8250.0,
                7425.0,
                8325.0,
                7500.0,
                8400.0,
                7575.0,
                8475.0,
                7650.0,
                8550.0,
                7725.0,
                8625.0,
                7800.0,
                8700.0,
                7875.0,
                8775.0,
                7950.0,
                8850.0,
                8025.0,
                9000.0,
                8100.0,
                8925.0,
                9075.0,
                9975.0,
                9150.0,
                10050.0,
                9225.0,
                10125.0,
                9300.0,
                10200.0,
                9375.0,
                10275.0,
                9450.0,
                10350.0,
                9525.0,
                10425.0,
                9600.0,
                10500.0,
                9675.0,
                10575.0,
                9750.0,
                10650.0,
                9825.0,
                10800.0,
                9900.0,
                10725.0,
                9075.0,
                9975.0,
                9150.0,
                10050.0,
                9225.0,
                10125.0,
                9300.0,
                10200.0,
                9375.0,
                10275.0,
                9450.0,
                10350.0,
                9525.0,
                10425.0,
                9600.0,
                10500.0,
                9675.0,
                10575.0,
                9750.0,
                10650.0,
                9825.0,
                10800.0,
                9900.0,
                10725.0
            ],
            "WindowCenter": [
                3413.0,
                3330.0,
                3741.0,
                3587.0,
                4045.0,
                3323.0,
                4788.0,
                3477.0,
                4083.0,
                3739.0,
                4072.0,
                4078.0,
                4165.0,
                4181.0,
                4619.0,
                4437.0,
                4793.0,
                4324.0,
                5008.0,
                4482.0,
                5107.0,
                4357.0,
                4869.0,
                4842.0,
                5484.0,
                4941.0,
                6090.0,
                5845.0,
                6454.0,
                6618.0,
                6682.0,
                6878.0,
                7078.0,
                7246.0,
                7200.0,
                6465.0,
                7195.0,
                6875.0,
                7176.0,
                6856.0,
                7923.0,
                6853.0,
                6933.0,
                7243.0,
                7578.0,
                6225.0,
                3211.0,
                1718.0,
                2862.0,
                2605.0,
                2773.0,
                2559.0,
                2769.0,
                2611.0,
                3532.0,
                2954.0,
                2939.0,
                3120.0,
                3168.0,
                3381.0,
                3199.0,
                3235.0,
                3485.0,
                3466.0,
                3636.0,
                3601.0,
                3640.0,
                3720.0,
                3740.0,
                3714.0,
                3789.0,
                4066.0,
                4071.0,
                3953.0,
                4549.0,
                5196.0,
                5166.0,
                5544.0,
                5146.0,
                5442.0,
                5526.0,
                5825.0,
                5653.0,
                5247.0,
                5589.0,
                5575.0,
                5817.0,
                5754.0,
                6455.0,
                5622.0,
                5721.0,
                6148.0,
                6547.0,
                5169.0,
                2536.0,
                1528.0,
                2538.0,
                2464.0,
                2594.0,
                2401.0,
                2556.0,
                2542.0,
                3133.0,
                2905.0,
                2829.0,
                3025.0,
                3031.0,
                3223.0,
                3143.0,
                3137.0,
                3240.0,
                3283.0,
                3487.0,
                3462.0,
                3465.0,
                3565.0,
                3660.0,
                3640.0,
                3583.0,
                3954.0,
                3781.0,
                3825.0,
                4304.0,
                4810.0,
                4725.0,
                5056.0,
                4740.0,
                4999.0,
                5355.0,
                5530.0,
                5307.0,
                4902.0,
                5109.0,
                5078.0,
                5425.0,
                5418.0,
                5889.0,
                5278.0,
                5312.0,
                5784.0,
                6113.0,
                4851.0,
                2352.0,
                1479.0,
                2658.0,
                2440.0,
                2547.0,
                2369.0,
                2514.0,
