{
    "AcquisitionMatrixPE": 88,
    "AcquisitionNumber": 1,
    "AcquisitionTime": "08:19:56.000000",
    "BodyPartExamined": "BRAIN",
    "CoilString": "48HAP",
    "ConversionSoftware": "dcm2niix",
    "ConversionSoftwareVersion": "v1.0.20190410  GCC6.3.0",
    "DeviceSerialNumber": "0000000319335MR2",
    "EchoTime": 0.03,
    "EffectiveEchoSpacing": 0.000564,
    "FlipAngle": 75,
    "ImageOrientationPatientDICOM": [
        1,
        0,
        0,
        0,
        1,
        0
    ],
    "ImageType": [
        "ORIGINAL",
        "PRIMARY",
        "OTHER"
    ],
    "ImagingFrequency": 127.754,
    "InPlanePhaseEncodingDirectionDICOM": "COL",
    "InstitutionName": "Iowa_MRRF",
    "MRAcquisitionType": "2D",
    "MagneticFieldStrength": 3,
    "Manufacturer": "GE",
    "ManufacturersModelName": "SIGNA_Premier",
    "Modality": "MR",
    "PatientPosition": "HFS",
    "PercentPhaseFOV": 100,
    "PhaseEncodingDirection": "j-",
    "PhaseEncodingPolarityGE": "Unflipped",
    "PixelBandwidth": 3906.25,
    "ProcedureStepDescription": "HWANG_NET",
    "ProtocolName": "EPI_FM_pepolar=1",
    "ReconMatrixPE": 128,
    "RepetitionTime": 1.8,
    "SAR": 0.0788598,
    "ScanOptions": "SAT_GEMS_EDR_GEMS_MP_GEMS_EPI_GEMS_HYPERBAND_GEMS_FS",
    "ScanningSequence": "EP_GR",
    "SequenceVariant": "SS",
    "SeriesDescription": "EPI_FM_pepolar=1",
    "SeriesNumber": 5,
    "SliceThickness": 2.5,
    "SliceTiming": [
        0,
        0.9,
        0.075,
        0.975,
        0.15,
        1.05,
        0.225,
        1.125,
        0.3,
        1.2,
        0.375,
        1.275,
        0.45,
        1.35,
        0.525,
        1.425,
        0.6,
        1.5,
        0.675,
        1.575,
        0.75,
        1.725,
        0.825,
        1.65,
        0,
        0.9,
        0.075,
        0.975,
        0.15,
        1.05,
        0.225,
        1.125,
        0.3,
        1.2,
        0.375,
        1.275,
        0.45,
        1.35,
        0.525,
        1.425,
        0.6,
        1.5,
        0.675,
        1.575,
        0.75,
        1.725,
        0.825,
        1.65
    ],
    "SoftwareVersions": "28_LX_MR_Software_release:RX28.0_R04_2020.b",
    "SpacingBetweenSlices": 2.5,
    "StationName": "Iowa3T",
    "TotalReadoutTime": 0.071628,
    "TriggerDelayTime": 10650,
    "dcmmeta_affine": [
        [
            -1.7187999486923218,
            0.0,
            0.0,
            106.0024642944336
        ],
        [
            0.0,
            1.7187999486923218,
            0.0,
            -119.77099609375
        ],
        [
            0.0,
            0.0,
            2.5,
            -43.136138916015625
        ],
        [
            0.0,
            0.0,
            0.0,
            1.0
        ]
    ],
    "dcmmeta_reorient_transform": [
        [
            0.0,
            -1.0,
            0.0,
            127.0
        ],
        [
            1.0,
            0.0,
            0.0,
            0.0
        ],
        [
            0.0,
            0.0,
            -1.0,
            47.0
        ],
        [
            0.0,
            0.0,
            0.0,
            1.0
        ]
    ],
    "dcmmeta_shape": [
        128,
        128,
        48,
        6
    ],
    "dcmmeta_slice_dim": 2,
    "dcmmeta_version": 0.6,
    "global": {
        "const": {
            "AcquisitionMatrix": [
                88,
                0,
                0,
                88
            ],
            "AcquisitionNumber": 1,
            "AcquisitionTime": "081956",
            "AnatomicRegionSequence": [
                {
                    "CodeMeaning": "Brain",
                    "CodeValue": "T-A0100",
                    "CodingSchemeDesignator": "SRT"
                }
            ],
            "AngioFlag": "N",
            "BeatRejectionFlag": "Y",
            "BitsAllocated": 16,
            "BitsStored": 16,
            "BodyPartExamined": "BRAIN",
            "CardiacNumberOfImages": 0,
            "Columns": 128,
            "ContentTime": "081956",
            "EchoNumbers": 1,
            "EchoTime": 30.0,
            "EchoTrainLength": 1,
            "FlipAngle": 75.0,
            "GroupLength_0X40_0X0": 98,
            "GroupLength_0X7FE0_0X0": 32780,
            "HeartRate": 0,
            "HighBit": 15,
            "ImageOrientationPatient": [
                1.0,
                -0.0,
                0.0,
                -0.0,
                1.0,
                0.0
            ],
            "ImageType": [
                "ORIGINAL",
                "PRIMARY",
                "OTHER"
            ],
            "ImagedNucleus": "1H",
            "ImagesInAcquisition": 288,
            "ImagingFrequency": 127.753583,
            "InPlanePhaseEncodingDirection": "COL",
            "MRAcquisitionType": "2D",
            "MagneticFieldStrength": 3.0,
            "Manufacturer": "GE MEDICAL SYSTEMS",
            "ManufacturerModelName": "SIGNA Premier",
            "Modality": "MR",
            "NumberOfAverages": 1.0,
            "NumberOfTemporalPositions": 6,
            "PercentPhaseFieldOfView": 100.0,
            "PercentSampling": 100.0,
            "PerformedLocation": "Iowa",
            "PerformedProcedureStepStartTime": "080859",
            "PhotometricInterpretation": "MONOCHROME2",
            "PixelBandwidth": 3906.25,
            "PixelRepresentation": 1,
            "PixelSpacing": [
                1.7188,
                1.7188
            ],
            "ProtocolName": "HWANG_NET_THALHI",
            "ReceiveCoilName": "48HAP",
            "ReconstructionDiameter": 220.0,
            "ReferencedPerformedProcedureStepSequence": [
                {
                    "ReferencedSOPClassUID": "1.2.840.10008.3.1.2.3.3",
                    "ReferencedSOPInstanceUID": "1.2.840.113619.6.475.179415986369335102862227648642979207972"
                }
            ],
            "RepetitionTime": 1800.0,
            "Rows": 128,
            "SAR": 0.0788598,
            "SamplesPerPixel": 1,
            "ScanOptions": [
                "SAT_GEMS",
                "EDR_GEMS",
                "MP_GEMS",
                "EPI_GEMS",
                "HYPERBAND_GEMS",
                "FS"
            ],
            "ScanningSequence": [
                "EP",
                "GR"
            ],
            "SequenceVariant": "SS",
            "SeriesDescription": "EPI FM pepolar=1",
            "SeriesNumber": 5,
            "SeriesTime": "081956",
            "SliceThickness": 2.5,
            "SmallestImagePixelValue": 0,
            "SoftwareVersions": [
                "28",
                "LX",
                "MR Software release:RX28.0_R04_2020.b"
            ],
            "SpacingBetweenSlices": 2.5,
            "SpecificCharacterSet": "ISO_IR 100",
            "StackID": "1",
            "StudyID": "689",
            "StudyTime": "080910",
            "TriggerWindow": 0,
            "VariableFlipAngleFlag": "N"
        },
        "slices": {
            "InstanceNumber": [
                1,
                2,
                3,
                4,
                5,
                6,
                7,
                8,
                9,
                10,
                11,
                12,
                13,
                14,
                15,
                16,
                17,
                18,
                19,
                20,
                21,
                22,
                23,
                24,
                25,
                26,
                27,
                28,
                29,
                30,
                31,
                32,
                33,
                34,
                35,
                36,
                37,
                38,
                39,
                40,
                41,
                42,
                43,
                44,
                45,
                46,
                47,
                48,
                49,
                50,
                51,
                52,
                53,
                54,
                55,
                56,
                57,
                58,
                59,
                60,
                61,
                62,
                63,
                64,
                65,
                66,
                67,
                68,
                69,
                70,
                71,
                72,
                73,
                74,
                75,
                76,
                77,
                78,
                79,
                80,
                81,
                82,
                83,
                84,
                85,
                86,
                87,
                88,
                89,
                90,
                91,
                92,
                93,
                94,
                95,
                96,
                97,
                98,
                99,
                100,
                101,
                102,
                103,
                104,
                105,
                106,
                107,
                108,
                109,
                110,
                111,
                112,
                113,
                114,
                115,
                116,
                117,
                118,
                119,
                120,
                121,
                122,
                123,
                124,
                125,
                126,
                127,
                128,
                129,
                130,
                131,
                132,
                133,
                134,
                135,
                136,
                137,
                138,
                139,
                140,
                141,
                142,
                143,
                144,
                145,
                146,
                147,
                148,
                149,
                150,
                151,
                152,
                153,
                154,
                155,
                156,
                157,
                158,
                159,
                160,
                161,
                162,
                163,
                164,
                165,
                166,
                167,
                168,
                169,
                170,
                171,
                172,
                173,
                174,
                175,
                176,
                177,
                178,
                179,
                180,
                181,
                182,
                183,
                184,
                185,
                186,
                187,
                188,
                189,
                190,
                191,
                192,
                193,
                194,
                195,
                196,
                197,
                198,
                199,
                200,
                201,
                202,
                203,
                204,
                205,
                206,
                207,
                208,
                209,
                210,
                211,
                212,
                213,
                214,
                215,
                216,
                217,
                218,
                219,
                220,
                221,
                222,
                223,
                224,
                225,
                226,
                227,
                228,
                229,
                230,
                231,
                232,
                233,
                234,
                235,
                236,
                237,
                238,
                239,
                240,
                241,
                242,
                243,
                244,
                245,
                246,
                247,
                248,
                249,
                250,
                251,
                252,
                253,
                254,
                255,
                256,
                257,
                258,
                259,
                260,
                261,
                262,
                263,
                264,
                265,
                266,
                267,
                268,
                269,
                270,
                271,
                272,
                273,
                274,
                275,
                276,
                277,
                278,
                279,
                280,
                281,
                282,
                283,
                284,
                285,
                286,
                287,
                288
            ],
            "LargestImagePixelValue": [
                7357,
                7048,
                4897,
                5099,
                5544,
                5154,
                5355,
                4958,
                5344,
                5020,
                6138,
                5352,
                6072,
                5945,
                6683,
                6174,
                6723,
                5768,
                6508,
                6137,
                7550,
                6726,
                7117,
                6439,
                8331,
                7412,
                8186,
                6933,
                8240,
                7540,
                8171,
                7306,
                8434,
                8147,
                8925,
                8546,
                9538,
                9567,
                9447,
                8984,
                9507,
                10212,
                10137,
                9061,
                10963,
                9499,
                10152,
                5258,
                5886,
                4318,
                4158,
                3852,
                4254,
                4412,
                4141,
                3718,
                4159,
                4385,
                4487,
                4721,
                4994,
                5064,
                5035,
                5324,
                5208,
                4925,
                5151,
                5159,
                5553,
                5456,
                5684,
                5536,
                5830,
                6081,
                6055,
                5816,
                6127,
                6364,
                6099,
                6319,
                6594,
                6827,
                6969,
                6916,
                7577,
                7947,
                7277,
                7311,
                7717,
                8494,
                8064,
                7737,
                9112,
                7779,
                7982,
                4172,
                5129,
                4056,
                3499,
                3735,
                4053,
                4286,
                4000,
                3653,
                3902,
                4235,
                4359,
                4804,
                4536,
                5041,
                4913,
                5215,
                5134,
                4914,
                5034,
                5113,
                5419,
                5368,
                5514,
                5448,
                5520,
                5855,
                5690,
                5786,
                5915,
                6059,
                5965,
                6124,
                6366,
                6644,
                6647,
                6670,
                7116,
                7561,
                6786,
                7036,
                7138,
                8020,
                7587,
                7324,
                8441,
                7412,
                7425,
                4070,
                4982,
                5469,
                3546,
                4194,
                4081,
                4318,
                4013,
                3581,
                3932,
                4319,
                4226,
                5080,
                4428,
                5044,
                5051,
                5258,
                5140,
                4879,
                5053,
                5091,
                5308,
                5353,
                5563,
                5505,
                5541,
                5753,
                5723,
                5717,
                5986,
                5966,
                5965,
                6021,
                6230,
                6123,
                6528,
                6662,
                7078,
                7338,
                6780,
                6782,
                7245,
                7894,
                7530,
                7110,
                8092,
                7294,
                7280,
                4085,
                7080,
                3974,
                4048,
                3694,
                4105,
                4313,
                3976,
                3642,
                3917,
                4233,
                4179,
                4828,
                4457,
                4973,
                4918,
                5248,
                5164,
                4897,
                4998,
                5084,
                5353,
                5316,
                5502,
                5427,
                5466,
                5781,
                5747,
                5736,
                5998,
                6014,
                5856,
                6067,
                6241,
                6296,
                6512,
                6535,
                6946,
                7254,
                6609,
                6903,
                6967,
                7761,
                7373,
                6989,
                7412,
                7034,
                7130,
                4013,
                5175,
                4073,
                3530,
                3714,
                4036,
                4254,
                4011,
                3650,
                3908,
                4233,
                4150,
                4986,
                4530,
                5030,
                4914,
                5214,
                5112,
                4905,
                5090,
                5113,
                5412,
                5430,
                5442,
                5507,
                5446,
                5610,
                5685,
                5764,
                6026,
                6062,
                5883,
                6108,
                6136,
                6499,
                6474,
                6516,
                6891,
                7271,
                6692,
                6950,
                7078,
                7735,
                7327,
                7030,
                7969,
                7159,
                7152,
                4107
            ],
            "TriggerTime": [
                75.0,
                975.0,
                150.0,
                1050.0,
                225.0,
                1125.0,
                300.0,
                1200.0,
                375.0,
                1275.0,
                450.0,
                1350.0,
                525.0,
                1425.0,
                600.0,
                1500.0,
                675.0,
                1575.0,
                750.0,
                1650.0,
                825.0,
                1800.0,
                900.0,
                1725.0,
                75.0,
                975.0,
                150.0,
                1050.0,
                225.0,
                1125.0,
                300.0,
                1200.0,
                375.0,
                1275.0,
                450.0,
                1350.0,
                525.0,
                1425.0,
                600.0,
                1500.0,
                675.0,
                1575.0,
                750.0,
                1650.0,
                825.0,
                1800.0,
                900.0,
                1725.0,
                1875.0,
                2775.0,
                1950.0,
                2850.0,
                2025.0,
                2925.0,
                2100.0,
                3000.0,
                2175.0,
                3075.0,
                2250.0,
                3150.0,
                2325.0,
                3225.0,
                2400.0,
                3300.0,
                2475.0,
                3375.0,
                2550.0,
                3450.0,
                2625.0,
                3600.0,
                2700.0,
                3525.0,
                1875.0,
                2775.0,
                1950.0,
                2850.0,
                2025.0,
                2925.0,
                2100.0,
                3000.0,
                2175.0,
                3075.0,
                2250.0,
                3150.0,
                2325.0,
                3225.0,
                2400.0,
                3300.0,
                2475.0,
                3375.0,
                2550.0,
                3450.0,
                2625.0,
                3600.0,
                2700.0,
                3525.0,
                3675.0,
                4575.0,
                3750.0,
                4650.0,
                3825.0,
                4725.0,
                3900.0,
                4800.0,
                3975.0,
                4875.0,
                4050.0,
                4950.0,
                4125.0,
                5025.0,
                4200.0,
                5100.0,
                4275.0,
                5175.0,
                4350.0,
                5250.0,
                4425.0,
                5400.0,
                4500.0,
                5325.0,
                3675.0,
                4575.0,
                3750.0,
                4650.0,
                3825.0,
                4725.0,
                3900.0,
                4800.0,
                3975.0,
                4875.0,
                4050.0,
                4950.0,
                4125.0,
                5025.0,
                4200.0,
                5100.0,
                4275.0,
                5175.0,
                4350.0,
                5250.0,
                4425.0,
                5400.0,
                4500.0,
                5325.0,
                5475.0,
                6375.0,
                5550.0,
                6450.0,
                5625.0,
                6525.0,
                5700.0,
                6600.0,
                5775.0,
                6675.0,
                5850.0,
                6750.0,
                5925.0,
                6825.0,
                6000.0,
                6900.0,
                6075.0,
                6975.0,
                6150.0,
                7050.0,
                6225.0,
                7200.0,
                6300.0,
                7125.0,
                5475.0,
                6375.0,
                5550.0,
                6450.0,
                5625.0,
                6525.0,
                5700.0,
                6600.0,
                5775.0,
                6675.0,
                5850.0,
                6750.0,
                5925.0,
                6825.0,
                6000.0,
                6900.0,
                6075.0,
                6975.0,
                6150.0,
                7050.0,
                6225.0,
                7200.0,
                6300.0,
                7125.0,
                7275.0,
                8175.0,
                7350.0,
                8250.0,
                7425.0,
                8325.0,
                7500.0,
                8400.0,
                7575.0,
                8475.0,
                7650.0,
                8550.0,
                7725.0,
                8625.0,
                7800.0,
                8700.0,
                7875.0,
                8775.0,
                7950.0,
                8850.0,
                8025.0,
                9000.0,
                8100.0,
                8925.0,
                7275.0,
                8175.0,
                7350.0,
                8250.0,
                7425.0,
                8325.0,
                7500.0,
                8400.0,
                7575.0,
                8475.0,
                7650.0,
                8550.0,
                7725.0,
                8625.0,
                7800.0,
                8700.0,
                7875.0,
                8775.0,
                7950.0,
                8850.0,
                8025.0,
                9000.0,
                8100.0,
                8925.0,
                9075.0,
                9975.0,
                9150.0,
                10050.0,
                9225.0,
                10125.0,
                9300.0,
                10200.0,
                9375.0,
                10275.0,
                9450.0,
                10350.0,
                9525.0,
                10425.0,
                9600.0,
                10500.0,
                9675.0,
                10575.0,
                9750.0,
                10650.0,
                9825.0,
                10800.0,
                9900.0,
                10725.0,
                9075.0,
                9975.0,
                9150.0,
                10050.0,
                9225.0,
                10125.0,
                9300.0,
                10200.0,
                9375.0,
                10275.0,
                9450.0,
                10350.0,
                9525.0,
                10425.0,
                9600.0,
                10500.0,
                9675.0,
                10575.0,
                9750.0,
                10650.0,
                9825.0,
                10800.0,
                9900.0,
                10725.0
            ],
            "WindowCenter": [
                4414.0,
                4228.0,
                2938.0,
                3059.0,
                3326.0,
                3092.0,
                3213.0,
                2974.0,
                3206.0,
                3012.0,
                3682.0,
                3211.0,
                3643.0,
                3567.0,
                4009.0,
                3704.0,
                4033.0,
                3460.0,
                3904.0,
                3682.0,
                4530.0,
                4035.0,
                4270.0,
                3863.0,
                4998.0,
                4447.0,
                4911.0,
                4159.0,
                4944.0,
                4524.0,
                4902.0,
                4383.0,
                5060.0,
                4888.0,
                5355.0,
                5127.0,
                5722.0,
                5740.0,
                5668.0,
                5390.0,
                5704.0,
                6127.0,
                6082.0,
                5436.0,
                6577.0,
                5699.0,
                6091.0,
                3154.0,
                3531.0,
                2590.0,
                2494.0,
                2311.0,
                2552.0,
                2647.0,
                2484.0,
                2230.0,
                2495.0,
                2631.0,
                2692.0,
                2832.0,
                2996.0,
                3038.0,
                3021.0,
                3194.0,
                3124.0,
                2955.0,
                3090.0,
                3095.0,
                3331.0,
                3273.0,
                3410.0,
                3321.0,
                3498.0,
                3648.0,
                3633.0,
                3489.0,
                3676.0,
                3818.0,
                3659.0,
                3791.0,
                3956.0,
                4096.0,
                4181.0,
                4149.0,
                4546.0,
                4768.0,
                4366.0,
                4386.0,
                4630.0,
                5096.0,
                4838.0,
                4642.0,
                5467.0,
                4667.0,
                4789.0,
                2503.0,
                3077.0,
                2433.0,
                2099.0,
                2241.0,
                2431.0,
                2571.0,
                2400.0,
                2191.0,
                2341.0,
                2541.0,
                2615.0,
                2882.0,
                2721.0,
                3024.0,
                2947.0,
                3129.0,
                3080.0,
                2948.0,
                3020.0,
                3067.0,
                3251.0,
                3220.0,
                3308.0,
                3268.0,
                3312.0,
                3513.0,
                3414.0,
                3471.0,
                3549.0,
                3635.0,
                3579.0,
                3674.0,
                3819.0,
                3986.0,
                3988.0,
                4002.0,
                4269.0,
                4536.0,
                4071.0,
                4221.0,
                4282.0,
                4812.0,
                4552.0,
                4394.0,
                5064.0,
                4447.0,
                4455.0,
                2442.0,
                2989.0,
                3281.0,
                2127.0,
                2516.0,
                2448.0,
                2590.0,
