{
    "AcquisitionMatrixPE": 88,
    "AcquisitionNumber": 1,
    "AcquisitionTime": "11:45:33.000000",
    "BodyPartExamined": "BRAIN",
    "CoilString": "48HAP",
    "ConversionSoftware": "dcm2niix",
    "ConversionSoftwareVersion": "v1.0.20220720",
    "DeviceSerialNumber": "0000000319335MR2",
    "EchoTime": 0.03,
    "EffectiveEchoSpacing": 0.000386362,
    "FlipAngle": 75,
    "HeudiconvVersion": "0.11.6",
    "ImageOrientationPatientDICOM": [
        1,
        0,
        0,
        0,
        1,
        0
    ],
    "ImageType": [
        "ORIGINAL",
        "PRIMARY",
        "OTHER"
    ],
    "ImagingFrequency": 127.754,
    "InPlanePhaseEncodingDirectionDICOM": "COL",
    "InstitutionName": "Iowa MRRF",
    "InternalPulseSequenceName": "EPI",
    "MRAcquisitionType": "2D",
    "MagneticFieldStrength": 3,
    "Manufacturer": "GE",
    "ManufacturersModelName": "SIGNA Premier",
    "Modality": "MR",
    "MultibandAccelerationFactor": 2,
    "PatientPosition": "HFS",
    "PercentPhaseFOV": 100,
    "PercentSampling": 100,
    "PhaseEncodingDirection": "j-",
    "PhaseEncodingPolarityGE": "Unflipped",
    "PixelBandwidth": 3906.25,
    "PrescanReuseString": "TG/s3,RN/s3,Coil/s1",
    "ProcedureStepDescription": "HWANG_NET",
    "ProtocolName": "HWANG_NET_THALHI",
    "PulseSequenceName": "epi",
    "ReconMatrixPE": 128,
    "RepetitionTime": 1.8,
    "SAR": 0.0878898,
    "ScanOptions": "SAT_GEMS\\EDR_GEMS\\MP_GEMS\\EPI_GEMS\\HYPERBAND_GEMS\\FS",
    "ScanningSequence": "EP\\GR",
    "SequenceVariant": "SS",
    "SeriesDescription": "EPI FM pepolar=1",
    "SeriesNumber": 5,
    "ShimSetting": [
        20,
        -29,
        -220
    ],
    "SliceThickness": 2.5,
    "SliceTiming": [
        0,
        0.9,
        0.075,
        0.975,
        0.15,
        1.05,
        0.225,
        1.125,
        0.3,
        1.2,
        0.375,
        1.275,
        0.45,
        1.35,
        0.525,
        1.425,
        0.6,
        1.5,
        0.675,
        1.575,
        0.75,
        1.725,
        0.825,
        1.65,
        0,
        0.9,
        0.075,
        0.975,
        0.15,
        1.05,
        0.225,
        1.125,
        0.3,
        1.2,
        0.375,
        1.275,
        0.45,
        1.35,
        0.525,
        1.425,
        0.6,
        1.5,
        0.675,
        1.575,
        0.75,
        1.725,
        0.825,
        1.65
    ],
    "SoftwareVersions": "28\\LX\\MR Software release:RX28.0_R05_2035.a",
    "SpacingBetweenSlices": 2.5,
    "StationName": "Iowa3T",
    "TotalReadoutTime": 0.049068,
    "TriggerDelayTime": 10650,
    "dcmmeta_affine": [
        [
            -1.7187999486923218,
            0.0,
            0.0,
            108.35926818847656
        ],
        [
            0.0,
            1.7187999486923218,
            0.0,
            -115.87712860107422
        ],
        [
            0.0,
            0.0,
            2.5,
            -49.386802673339844
        ],
        [
            0.0,
            0.0,
            0.0,
            1.0
        ]
    ],
    "dcmmeta_reorient_transform": [
        [
            0.0,
            -1.0,
            0.0,
            127.0
        ],
        [
            1.0,
            0.0,
            0.0,
            0.0
        ],
        [
            0.0,
            0.0,
            -1.0,
            47.0
        ],
        [
            0.0,
            0.0,
            0.0,
            1.0
        ]
    ],
    "dcmmeta_shape": [
        128,
        128,
        48,
        6
    ],
    "dcmmeta_slice_dim": 2,
    "dcmmeta_version": 0.6,
    "global": {
        "const": {
            "AcquisitionMatrix": [
                88,
                0,
                0,
                88
            ],
            "AcquisitionNumber": 1,
            "AcquisitionTime": "114533",
            "AnatomicRegionSequence": [
                {
                    "CodeMeaning": "Brain",
                    "CodeValue": "T-A0100",
                    "CodingSchemeDesignator": "SRT"
                }
            ],
            "AngioFlag": "N",
            "BeatRejectionFlag": "Y",
            "BitsAllocated": 16,
            "BitsStored": 16,
            "BodyPartExamined": "BRAIN",
            "CardiacNumberOfImages": 0,
            "Columns": 128,
            "ContentTime": "114533",
            "EchoNumbers": 1,
            "EchoTime": 30.0,
            "EchoTrainLength": 1,
            "FlipAngle": 75.0,
            "GroupLength_0X40_0X0": 98,
            "GroupLength_0X7FE0_0X0": 32780,
            "HeartRate": 0,
            "HighBit": 15,
            "ImageOrientationPatient": [
                1.0,
                -0.0,
                0.0,
                -0.0,
                1.0,
                0.0
            ],
            "ImageType": [
                "ORIGINAL",
                "PRIMARY",
                "OTHER"
            ],
            "ImagedNucleus": "1H",
            "ImagesInAcquisition": 288,
            "ImagingFrequency": 127.753868,
            "InPlanePhaseEncodingDirection": "COL",
            "MRAcquisitionType": "2D",
            "MagneticFieldStrength": 3.0,
            "Manufacturer": "GE MEDICAL SYSTEMS",
            "ManufacturerModelName": "SIGNA Premier",
            "Modality": "MR",
            "NumberOfAverages": 1.0,
            "NumberOfTemporalPositions": 6,
            "PercentPhaseFieldOfView": 100.0,
            "PercentSampling": 100.0,
            "PerformedLocation": "Iowa",
            "PerformedProcedureStepStartTime": "113628",
            "PhotometricInterpretation": "MONOCHROME2",
            "PixelBandwidth": 3906.25,
            "PixelRepresentation": 1,
            "PixelSpacing": [
                1.7188,
                1.7188
            ],
            "ProtocolName": "HWANG_NET_THALHI",
            "ReceiveCoilName": "48HAP",
            "ReconstructionDiameter": 220.0,
            "ReferencedPerformedProcedureStepSequence": [
                {
                    "ReferencedSOPClassUID": "1.2.840.10008.3.1.2.3.3",
                    "ReferencedSOPInstanceUID": "1.2.840.113619.6.475.333164691065227710746175533471043065056"
                }
            ],
            "RepetitionTime": 1800.0,
            "Rows": 128,
            "SAR": 0.0878898,
            "SamplesPerPixel": 1,
            "ScanOptions": [
                "SAT_GEMS",
                "EDR_GEMS",
                "MP_GEMS",
                "EPI_GEMS",
                "HYPERBAND_GEMS",
                "FS"
            ],
            "ScanningSequence": [
                "EP",
                "GR"
            ],
            "SequenceVariant": "SS",
            "SeriesDescription": "EPI FM pepolar=1",
            "SeriesNumber": 5,
            "SeriesTime": "114533",
            "SliceThickness": 2.5,
            "SmallestImagePixelValue": 0,
            "SoftwareVersions": [
                "28",
                "LX",
                "MR Software release:RX28.0_R05_2035.a"
            ],
            "SpacingBetweenSlices": 2.5,
            "SpecificCharacterSet": "ISO_IR 100",
            "StackID": "1",
            "StudyID": "1479",
            "StudyTime": "113633",
            "TriggerWindow": 0,
            "VariableFlipAngleFlag": "N"
        },
        "slices": {
            "InstanceNumber": [
                1,
                2,
                3,
                4,
                5,
                6,
                7,
                8,
                9,
                10,
                11,
                12,
                13,
                14,
                15,
                16,
                17,
                18,
                19,
                20,
                21,
                22,
                23,
                24,
                25,
                26,
                27,
                28,
                29,
                30,
                31,
                32,
                33,
                34,
                35,
                36,
                37,
                38,
                39,
                40,
                41,
                42,
                43,
                44,
                45,
                46,
                47,
                48,
                49,
                50,
                51,
                52,
                53,
                54,
                55,
                56,
                57,
                58,
                59,
                60,
                61,
                62,
                63,
                64,
                65,
                66,
                67,
                68,
                69,
                70,
                71,
                72,
                73,
                74,
                75,
                76,
                77,
                78,
                79,
                80,
                81,
                82,
                83,
                84,
                85,
                86,
                87,
                88,
                89,
                90,
                91,
                92,
                93,
                94,
                95,
                96,
                97,
                98,
                99,
                100,
                101,
                102,
                103,
                104,
                105,
                106,
                107,
                108,
                109,
                110,
                111,
                112,
                113,
                114,
                115,
                116,
                117,
                118,
                119,
                120,
                121,
                122,
                123,
                124,
                125,
                126,
                127,
                128,
                129,
                130,
                131,
                132,
                133,
                134,
                135,
                136,
                137,
                138,
                139,
                140,
                141,
                142,
                143,
                144,
                145,
                146,
                147,
                148,
                149,
                150,
                151,
                152,
                153,
                154,
                155,
                156,
                157,
                158,
                159,
                160,
                161,
                162,
                163,
                164,
                165,
                166,
                167,
                168,
                169,
                170,
                171,
                172,
                173,
                174,
                175,
                176,
                177,
                178,
                179,
                180,
                181,
                182,
                183,
                184,
                185,
                186,
                187,
                188,
                189,
                190,
                191,
                192,
                193,
                194,
                195,
                196,
                197,
                198,
                199,
                200,
                201,
                202,
                203,
                204,
                205,
                206,
                207,
                208,
                209,
                210,
                211,
                212,
                213,
                214,
                215,
                216,
                217,
                218,
                219,
                220,
                221,
                222,
                223,
                224,
                225,
                226,
                227,
                228,
                229,
                230,
                231,
                232,
                233,
                234,
                235,
                236,
                237,
                238,
                239,
                240,
                241,
                242,
                243,
                244,
                245,
                246,
                247,
                248,
                249,
                250,
                251,
                252,
                253,
                254,
                255,
                256,
                257,
                258,
                259,
                260,
                261,
                262,
                263,
                264,
                265,
                266,
                267,
                268,
                269,
                270,
                271,
                272,
                273,
                274,
                275,
                276,
                277,
                278,
                279,
                280,
                281,
                282,
                283,
                284,
                285,
                286,
                287,
                288
            ],
            "LargestImagePixelValue": [
                5614,
                4981,
                4269,
                4138,
                4993,
                3990,
                4748,
                4061,
                5174,
                5397,
                5709,
                5898,
                5957,
                4567,
                5328,
                5104,
                6148,
                5845,
                6242,
                5877,
                6909,
                5942,
                6980,
                6096,
                6932,
                6898,
                7334,
                6739,
                7508,
                6501,
                7497,
                6979,
                7772,
                7558,
                7596,
                6928,
                8419,
                8777,
                8776,
                9507,
                10061,
                8768,
                9348,
                8132,
                7497,
                7930,
                8909,
                8014,
                3422,
                3920,
                3238,
                3546,
                3939,
                3408,
                3659,
                3393,
                4078,
                4293,
                4584,
                4646,
                4608,
                3972,
                4211,
                4307,
                4804,
                4927,
                4829,
                5049,
                5588,
                5027,
                5945,
                5017,
                5694,
                5901,
                5641,
                5600,
                5835,
                5428,
                5740,
                5847,
                6431,
                6348,
                5834,
                5805,
                6746,
                7289,
                7172,
                8213,
                8376,
                7024,
                7399,
                6686,
                6004,
                6581,
                7269,
                6997,
                3448,
                3464,
                3121,
                3583,
                3808,
                3458,
                3531,
                3350,
                3823,
                4222,
                4174,
                4453,
                4373,
                3973,
                4041,
                4320,
                4758,
                4702,
                4652,
                4959,
                5284,
                4871,
                5440,
                4762,
                5141,
                5363,
                5324,
                5401,
                5472,
                5317,
                5531,
                5525,
                5877,
                5774,
                5632,
                5556,
                6212,
                6085,
                6544,
                7741,
                7474,
                6617,
                7112,
                6234,
                5641,
                6155,
                6616,
                6426,
                2933,
                3684,
                3081,
                3455,
                3766,
                3381,
                3452,
                3357,
                3875,
                3957,
                4121,
                4348,
                4153,
                3882,
                4004,
                4217,
                4616,
                4755,
                4694,
                4939,
                5244,
                4790,
                5289,
                4833,
                5115,
                5400,
                5315,
                5270,
                5318,
                5266,
                5454,
                5436,
                5721,
                5823,
                5557,
                5504,
                6114,
                6790,
                6436,
                7371,
                7559,
                6551,
                6955,
                6123,
                5438,
                6022,
                6481,
                6451,
                3987,
                3509,
                3086,
                3447,
                3709,
                3376,
                3431,
                3382,
                3875,
                3901,
                4164,
                4337,
                4055,
                3945,
                4001,
                4183,
                4616,
                4709,
                4672,
                4863,
                5243,
                4922,
                5220,
                4764,
                4768,
                5280,
                5281,
                5310,
                5343,
                5197,
                5369,
                5380,
                5629,
                5620,
                5361,
                5465,
                5981,
                6728,
                6373,
                7010,
                7473,
                6561,
                6900,
                6102,
                5405,
                5952,
                6374,
                6355,
                4252,
                3553,
                3116,
                3508,
                3772,
                3411,
                3494,
                3382,
                3853,
                3967,
                4024,
                4360,
                4119,
                3902,
                4075,
                4182,
                4711,
                4675,
                4647,
                4896,
                5209,
                4864,
                5162,
                4771,
                4931,
                5189,
                5192,
                5332,
                5254,
                5255,
                5337,
                5422,
                5642,
                5617,
                5524,
                5434,
                5996,
                6692,
                6395,
                7367,
                7170,
                6517,
                6837,
                6034,
                5403,
                5926,
                6239,
                6191
            ],
            "TriggerTime": [
                75.0,
                975.0,
                150.0,
                1050.0,
                225.0,
                1125.0,
                300.0,
                1200.0,
                375.0,
                1275.0,
                450.0,
                1350.0,
                525.0,
                1425.0,
                600.0,
                1500.0,
                675.0,
                1575.0,
                750.0,
                1650.0,
                825.0,
                1800.0,
                900.0,
                1725.0,
                75.0,
                975.0,
                150.0,
                1050.0,
                225.0,
                1125.0,
                300.0,
                1200.0,
                375.0,
                1275.0,
                450.0,
                1350.0,
                525.0,
                1425.0,
                600.0,
                1500.0,
                675.0,
                1575.0,
                750.0,
                1650.0,
                825.0,
                1800.0,
                900.0,
                1725.0,
                1875.0,
                2775.0,
                1950.0,
                2850.0,
                2025.0,
                2925.0,
                2100.0,
                3000.0,
                2175.0,
                3075.0,
                2250.0,
                3150.0,
                2325.0,
                3225.0,
                2400.0,
                3300.0,
                2475.0,
                3375.0,
                2550.0,
                3450.0,
                2625.0,
                3600.0,
                2700.0,
                3525.0,
                1875.0,
                2775.0,
                1950.0,
                2850.0,
                2025.0,
                2925.0,
                2100.0,
                3000.0,
                2175.0,
                3075.0,
                2250.0,
                3150.0,
                2325.0,
                3225.0,
                2400.0,
                3300.0,
                2475.0,
                3375.0,
                2550.0,
                3450.0,
                2625.0,
                3600.0,
                2700.0,
                3525.0,
                3675.0,
                4575.0,
                3750.0,
                4650.0,
                3825.0,
                4725.0,
                3900.0,
                4800.0,
                3975.0,
                4875.0,
                4050.0,
                4950.0,
                4125.0,
                5025.0,
                4200.0,
                5100.0,
                4275.0,
                5175.0,
                4350.0,
                5250.0,
                4425.0,
                5400.0,
                4500.0,
                5325.0,
                3675.0,
                4575.0,
                3750.0,
                4650.0,
                3825.0,
                4725.0,
                3900.0,
                4800.0,
                3975.0,
                4875.0,
                4050.0,
                4950.0,
                4125.0,
                5025.0,
                4200.0,
                5100.0,
                4275.0,
                5175.0,
                4350.0,
                5250.0,
                4425.0,
                5400.0,
                4500.0,
                5325.0,
                5475.0,
                6375.0,
                5550.0,
                6450.0,
                5625.0,
                6525.0,
                5700.0,
                6600.0,
                5775.0,
                6675.0,
                5850.0,
                6750.0,
                5925.0,
                6825.0,
                6000.0,
                6900.0,
                6075.0,
                6975.0,
                6150.0,
                7050.0,
                6225.0,
                7200.0,
                6300.0,
                7125.0,
                5475.0,
                6375.0,
                5550.0,
                6450.0,
                5625.0,
                6525.0,
                5700.0,
                6600.0,
                5775.0,
                6675.0,
                5850.0,
                6750.0,
                5925.0,
                6825.0,
                6000.0,
                6900.0,
                6075.0,
                6975.0,
                6150.0,
                7050.0,
                6225.0,
                7200.0,
                6300.0,
                7125.0,
                7275.0,
                8175.0,
                7350.0,
                8250.0,
                7425.0,
                8325.0,
                7500.0,
                8400.0,
                7575.0,
                8475.0,
                7650.0,
                8550.0,
                7725.0,
                8625.0,
                7800.0,
                8700.0,
                7875.0,
                8775.0,
                7950.0,
                8850.0,
                8025.0,
                9000.0,
                8100.0,
                8925.0,
                7275.0,
                8175.0,
                7350.0,
                8250.0,
                7425.0,
                8325.0,
                7500.0,
                8400.0,
                7575.0,
                8475.0,
                7650.0,
                8550.0,
                7725.0,
                8625.0,
                7800.0,
                8700.0,
                7875.0,
                8775.0,
                7950.0,
                8850.0,
                8025.0,
                9000.0,
                8100.0,
                8925.0,
                9075.0,
                9975.0,
                9150.0,
                10050.0,
                9225.0,
                10125.0,
                9300.0,
                10200.0,
                9375.0,
                10275.0,
                9450.0,
                10350.0,
                9525.0,
                10425.0,
                9600.0,
                10500.0,
                9675.0,
                10575.0,
                9750.0,
                10650.0,
                9825.0,
                10800.0,
                9900.0,
                10725.0,
                9075.0,
                9975.0,
                9150.0,
                10050.0,
                9225.0,
                10125.0,
                9300.0,
                10200.0,
                9375.0,
                10275.0,
                9450.0,
                10350.0,
                9525.0,
                10425.0,
                9600.0,
                10500.0,
                9675.0,
                10575.0,
                9750.0,
                10650.0,
                9825.0,
                10800.0,
                9900.0,
                10725.0
            ],
            "WindowCenter": [
                3368.0,
                2988.0,
                2561.0,
                2482.0,
                2995.0,
                2394.0,
                2848.0,
                2436.0,
                3104.0,
                3238.0,
                3425.0,
                3538.0,
                3574.0,
                2740.0,
                3196.0,
                3062.0,
                3688.0,
                3507.0,
                3745.0,
                3526.0,
                4145.0,
                3565.0,
                4188.0,
                3657.0,
                4159.0,
                4138.0,
                4400.0,
                4043.0,
                4504.0,
                3900.0,
                4498.0,
                4187.0,
                4663.0,
                4534.0,
                4557.0,
                4156.0,
                5051.0,
                5266.0,
                5265.0,
                5704.0,
                6036.0,
                5260.0,
                5608.0,
                4879.0,
                4498.0,
                4758.0,
                5345.0,
                4808.0,
                2053.0,
                2352.0,
                1942.0,
                2127.0,
                2363.0,
                2044.0,
                2195.0,
                2035.0,
                2446.0,
                2575.0,
                2750.0,
                2787.0,
                2764.0,
                2383.0,
                2526.0,
                2584.0,
                2882.0,
                2956.0,
                2897.0,
                3029.0,
                3352.0,
                3016.0,
                3567.0,
                3010.0,
                3416.0,
                3540.0,
                3384.0,
                3360.0,
                3501.0,
                3256.0,
                3444.0,
                3508.0,
                3858.0,
                3808.0,
                3500.0,
                3483.0,
                4047.0,
                4373.0,
                4303.0,
                4927.0,
                5025.0,
                4214.0,
                4439.0,
                4011.0,
                3602.0,
                3948.0,
                4361.0,
                4198.0,
                2068.0,
                2078.0,
                1872.0,
                2149.0,
                2284.0,
                2074.0,
                2118.0,
                2010.0,
                2293.0,
                2533.0,
                2504.0,
                2671.0,
                2623.0,
                2383.0,
                2424.0,
                2592.0,
                2854.0,
                2821.0,
                2791.0,
                2975.0,
                3170.0,
                2922.0,
                3264.0,
                2857.0,
                3084.0,
                3217.0,
                3194.0,
                3240.0,
                3283.0,
                3190.0,
                3318.0,
                3315.0,
                3526.0,
                3464.0,
                3379.0,
                3333.0,
                3727.0,
                3651.0,
                3926.0,
                4644.0,
                4484.0,
                3970.0,
