{
    "AcquisitionMatrixPE": 88,
    "AcquisitionNumber": 1,
    "AcquisitionTime": "12:17:46.000000",
    "BodyPartExamined": "BRAIN",
    "CoilString": "48HAP",
    "ConversionSoftware": "dcm2niix",
    "ConversionSoftwareVersion": "v1.0.20220720",
    "DeviceSerialNumber": "0000000319335MR2",
    "EchoTime": 0.03,
    "EffectiveEchoSpacing": 0.000386362,
    "FlipAngle": 75,
    "HeudiconvVersion": "0.11.6",
    "ImageOrientationPatientDICOM": [
        1,
        0,
        0,
        0,
        1,
        0
    ],
    "ImageType": [
        "ORIGINAL",
        "PRIMARY",
        "OTHER"
    ],
    "ImagingFrequency": 127.754,
    "InPlanePhaseEncodingDirectionDICOM": "COL",
    "InstitutionName": "Iowa MRRF",
    "InternalPulseSequenceName": "EPI",
    "MRAcquisitionType": "2D",
    "MagneticFieldStrength": 3,
    "Manufacturer": "GE",
    "ManufacturersModelName": "SIGNA Premier",
    "Modality": "MR",
    "MultibandAccelerationFactor": 2,
    "PatientPosition": "HFS",
    "PercentPhaseFOV": 100,
    "PercentSampling": 100,
    "PhaseEncodingDirection": "j-",
    "PhaseEncodingPolarityGE": "Unflipped",
    "PixelBandwidth": 3906.25,
    "PrescanReuseString": "TG/s3,RN/s3,Cal/s5,Coil/s1",
    "ProcedureStepDescription": "HWANG_NET",
    "ProtocolName": "HWANG_NET_THALHI",
    "PulseSequenceName": "epi",
    "ReconMatrixPE": 128,
    "RepetitionTime": 1.8,
    "SAR": 0.0878898,
    "ScanOptions": "SAT_GEMS\\EDR_GEMS\\MP_GEMS\\EPI_GEMS\\HYPERBAND_GEMS\\FS",
    "ScanningSequence": "EP\\GR",
    "SequenceVariant": "SS",
    "SeriesDescription": "EPI FM pepolar=1",
    "SeriesNumber": 11,
    "ShimSetting": [
        20,
        -29,
        -220
    ],
    "SliceThickness": 2.5,
    "SliceTiming": [
        0,
        0.9,
        0.075,
        0.975,
        0.15,
        1.05,
        0.225,
        1.125,
        0.3,
        1.2,
        0.375,
        1.275,
        0.45,
        1.35,
        0.525,
        1.425,
        0.6,
        1.5,
        0.675,
        1.575,
        0.75,
        1.725,
        0.825,
        1.65,
        0,
        0.9,
        0.075,
        0.975,
        0.15,
        1.05,
        0.225,
        1.125,
        0.3,
        1.2,
        0.375,
        1.275,
        0.45,
        1.35,
        0.525,
        1.425,
        0.6,
        1.5,
        0.675,
        1.575,
        0.75,
        1.725,
        0.825,
        1.65
    ],
    "SoftwareVersions": "28\\LX\\MR Software release:RX28.0_R05_2035.a",
    "SpacingBetweenSlices": 2.5,
    "StationName": "Iowa3T",
    "TotalReadoutTime": 0.049068,
    "TriggerDelayTime": 10650,
    "dcmmeta_affine": [
        [
            -1.7187999486923218,
            0.0,
            0.0,
            108.35926818847656
        ],
        [
            0.0,
            1.7187999486923218,
            0.0,
            -115.87712860107422
        ],
        [
            0.0,
            0.0,
            2.5,
            -49.386802673339844
        ],
        [
            0.0,
            0.0,
            0.0,
            1.0
        ]
    ],
    "dcmmeta_reorient_transform": [
        [
            0.0,
            -1.0,
            0.0,
            127.0
        ],
        [
            1.0,
            0.0,
            0.0,
            0.0
        ],
        [
            0.0,
            0.0,
            -1.0,
            47.0
        ],
        [
            0.0,
            0.0,
            0.0,
            1.0
        ]
    ],
    "dcmmeta_shape": [
        128,
        128,
        48,
        6
    ],
    "dcmmeta_slice_dim": 2,
    "dcmmeta_version": 0.6,
    "global": {
        "const": {
            "AcquisitionMatrix": [
                88,
                0,
                0,
                88
            ],
            "AcquisitionNumber": 1,
            "AcquisitionTime": "121746",
            "AnatomicRegionSequence": [
                {
                    "CodeMeaning": "Brain",
                    "CodeValue": "T-A0100",
                    "CodingSchemeDesignator": "SRT"
                }
            ],
            "AngioFlag": "N",
            "BeatRejectionFlag": "Y",
            "BitsAllocated": 16,
            "BitsStored": 16,
            "BodyPartExamined": "BRAIN",
            "CardiacNumberOfImages": 0,
            "Columns": 128,
            "ContentTime": "121746",
            "EchoNumbers": 1,
            "EchoTime": 30.0,
            "EchoTrainLength": 1,
            "FlipAngle": 75.0,
            "GroupLength_0X40_0X0": 98,
            "GroupLength_0X7FE0_0X0": 32780,
            "HeartRate": 0,
            "HighBit": 15,
            "ImageOrientationPatient": [
                1.0,
                -0.0,
                0.0,
                -0.0,
                1.0,
                0.0
            ],
            "ImageType": [
                "ORIGINAL",
                "PRIMARY",
                "OTHER"
            ],
            "ImagedNucleus": "1H",
            "ImagesInAcquisition": 288,
            "ImagingFrequency": 127.753882,
            "InPlanePhaseEncodingDirection": "COL",
            "MRAcquisitionType": "2D",
            "MagneticFieldStrength": 3.0,
            "Manufacturer": "GE MEDICAL SYSTEMS",
            "ManufacturerModelName": "SIGNA Premier",
            "Modality": "MR",
            "NumberOfAverages": 1.0,
            "NumberOfTemporalPositions": 6,
            "PercentPhaseFieldOfView": 100.0,
            "PercentSampling": 100.0,
            "PerformedLocation": "Iowa",
            "PerformedProcedureStepStartTime": "113628",
            "PhotometricInterpretation": "MONOCHROME2",
            "PixelBandwidth": 3906.25,
            "PixelRepresentation": 1,
            "PixelSpacing": [
                1.7188,
                1.7188
            ],
            "ProtocolName": "HWANG_NET_THALHI",
            "ReceiveCoilName": "48HAP",
            "ReconstructionDiameter": 220.0,
            "ReferencedPerformedProcedureStepSequence": [
                {
                    "ReferencedSOPClassUID": "1.2.840.10008.3.1.2.3.3",
                    "ReferencedSOPInstanceUID": "1.2.840.113619.6.475.333164691065227710746175533471043065056"
                }
            ],
            "RepetitionTime": 1800.0,
            "Rows": 128,
            "SAR": 0.0878898,
            "SamplesPerPixel": 1,
            "ScanOptions": [
                "SAT_GEMS",
                "EDR_GEMS",
                "MP_GEMS",
                "EPI_GEMS",
                "HYPERBAND_GEMS",
                "FS"
            ],
            "ScanningSequence": [
                "EP",
                "GR"
            ],
            "SequenceVariant": "SS",
            "SeriesDescription": "EPI FM pepolar=1",
            "SeriesNumber": 11,
            "SeriesTime": "121746",
            "SliceThickness": 2.5,
            "SmallestImagePixelValue": 0,
            "SoftwareVersions": [
                "28",
                "LX",
                "MR Software release:RX28.0_R05_2035.a"
            ],
            "SpacingBetweenSlices": 2.5,
            "SpecificCharacterSet": "ISO_IR 100",
            "StackID": "1",
            "StudyID": "1479",
            "StudyTime": "113633",
            "TriggerWindow": 0,
            "VariableFlipAngleFlag": "N"
        },
        "slices": {
            "InstanceNumber": [
                1,
                2,
                3,
                4,
                5,
                6,
                7,
                8,
                9,
                10,
                11,
                12,
                13,
                14,
                15,
                16,
                17,
                18,
                19,
                20,
                21,
                22,
                23,
                24,
                25,
                26,
                27,
                28,
                29,
                30,
                31,
                32,
                33,
                34,
                35,
                36,
                37,
                38,
                39,
                40,
                41,
                42,
                43,
                44,
                45,
                46,
                47,
                48,
                49,
                50,
                51,
                52,
                53,
                54,
                55,
                56,
                57,
                58,
                59,
                60,
                61,
                62,
                63,
                64,
                65,
                66,
                67,
                68,
                69,
                70,
                71,
                72,
                73,
                74,
                75,
                76,
                77,
                78,
                79,
                80,
                81,
                82,
                83,
                84,
                85,
                86,
                87,
                88,
                89,
                90,
                91,
                92,
                93,
                94,
                95,
                96,
                97,
                98,
                99,
                100,
                101,
                102,
                103,
                104,
                105,
                106,
                107,
                108,
                109,
                110,
                111,
                112,
                113,
                114,
                115,
                116,
                117,
                118,
                119,
                120,
                121,
                122,
                123,
                124,
                125,
                126,
                127,
                128,
                129,
                130,
                131,
                132,
                133,
                134,
                135,
                136,
                137,
                138,
                139,
                140,
                141,
                142,
                143,
                144,
                145,
                146,
                147,
                148,
                149,
                150,
                151,
                152,
                153,
                154,
                155,
                156,
                157,
                158,
                159,
                160,
                161,
                162,
                163,
                164,
                165,
                166,
                167,
                168,
                169,
                170,
                171,
                172,
                173,
                174,
                175,
                176,
                177,
                178,
                179,
                180,
                181,
                182,
                183,
                184,
                185,
                186,
                187,
                188,
                189,
                190,
                191,
                192,
                193,
                194,
                195,
                196,
                197,
                198,
                199,
                200,
                201,
                202,
                203,
                204,
                205,
                206,
                207,
                208,
                209,
                210,
                211,
                212,
                213,
                214,
                215,
                216,
                217,
                218,
                219,
                220,
                221,
                222,
                223,
                224,
                225,
                226,
                227,
                228,
                229,
                230,
                231,
                232,
                233,
                234,
                235,
                236,
                237,
                238,
                239,
                240,
                241,
                242,
                243,
                244,
                245,
                246,
                247,
                248,
                249,
                250,
                251,
                252,
                253,
                254,
                255,
                256,
                257,
                258,
                259,
                260,
                261,
                262,
                263,
                264,
                265,
                266,
                267,
                268,
                269,
                270,
                271,
                272,
                273,
                274,
                275,
                276,
                277,
                278,
                279,
                280,
                281,
                282,
                283,
                284,
                285,
                286,
                287,
                288
            ],
            "LargestImagePixelValue": [
                5559,
                4026,
                4869,
                4345,
                4748,
                4256,
                4631,
                4629,
                5361,
                5597,
                5258,
                5769,
                5170,
                4833,
                5303,
                5310,
                5708,
                5482,
                6275,
                6254,
                6588,
                5652,
                6149,
                5883,
                7169,
                6847,
                7345,
                6865,
                7175,
                6836,
                7712,
                6936,
                8062,
                6997,
                7429,
                7536,
                9002,
                8000,
                9637,
                9715,
                8553,
                8978,
                9096,
                7542,
                7679,
                7976,
                7796,
                6508,
                4155,
                3318,
                3745,
                3663,
                3592,
                3683,
                3646,
                3997,
                4187,
                4437,
                4135,
                4659,
                3989,
                4261,
                4257,
                4505,
                4536,
                4747,
                4998,
                5356,
                5220,
                4962,
                5513,
                5105,
                5533,
                5650,
                5713,
                5716,
                5826,
                5793,
                5973,
                6052,
                6433,
                6007,
                5963,
                6388,
                7133,
                6746,
                7588,
                7964,
                6885,
                7503,
                7506,
                6303,
                6333,
                6905,
                6500,
                5790,
                4138,
                3257,
                3736,
                3624,
                3564,
                3570,
                3485,
                3815,
                4006,
                4255,
                3960,
                4415,
                3942,
                4215,
                4211,
                4429,
                4397,
                4703,
                4914,
                5151,
                5041,
                4759,
                5136,
                4999,
                5359,
                5487,
                5436,
                5493,
                5538,
                5534,
                5805,
                5717,
                6009,
                5681,
                5667,
                5931,
                6757,
                6412,
                7470,
                7656,
                6502,
                7014,
                6796,
                5949,
                5976,
                6409,
                6045,
                5466,
                4161,
                3211,
                3622,
                3597,
                3543,
                3528,
                3515,
                3888,
                3968,
                4404,
                3940,
                4252,
                3885,
                4104,
                4171,
                4400,
                4478,
                4633,
                4872,
                5116,
                5001,
                4655,
                4990,
                5054,
                5267,
                5493,
                5342,
                5496,
                5447,
                5492,
                5635,
                5635,
                5930,
                5602,
                5610,
                5833,
                6529,
                6235,
                7300,
                7358,
                6436,
                6870,
                6228,
                5847,
                5814,
                6304,
                5911,
                5438,
                4840,
                3239,
                3591,
                3589,
                3582,
                3563,
                3456,
                3902,
                3978,
                4117,
                3901,
                4189,
                3939,
                4030,
                4163,
                4374,
                4468,
                4594,
                4882,
                5098,
                4950,
                4629,
                4867,
                4978,
                5023,
                5492,
                5359,
                5395,
                5442,
                5518,
                5668,
                5619,
                5527,
                5586,
                5584,
                5779,
                6374,
                6172,
                7291,
                7349,
                6465,
                6669,
                6622,
                5806,
                5792,
                6211,
                5840,
                5262,
                3867,
                3243,
                3576,
                3613,
                3495,
                3553,
                3461,
                3872,
                3965,
                4097,
                3878,
                4312,
                3874,
                4133,
                4100,
                4398,
                4375,
                4563,
                4874,
                5129,
                4858,
                4671,
                4935,
                4770,
                5261,
                5421,
                5219,
                5426,
                5418,
                5507,
                5699,
                5417,
                5934,
                5581,
                5551,
                5770,
                6495,
                6221,
                7133,
                7321,
                6348,
                6787,
                6726,
                5794,
                5790,
                6251,
                5812,
                5318
            ],
            "TriggerTime": [
                75.0,
                975.0,
                150.0,
                1050.0,
                225.0,
                1125.0,
                300.0,
                1200.0,
                375.0,
                1275.0,
                450.0,
                1350.0,
                525.0,
                1425.0,
                600.0,
                1500.0,
                675.0,
                1575.0,
                750.0,
                1650.0,
                825.0,
                1800.0,
                900.0,
                1725.0,
                75.0,
                975.0,
                150.0,
                1050.0,
                225.0,
                1125.0,
                300.0,
                1200.0,
                375.0,
                1275.0,
                450.0,
                1350.0,
                525.0,
                1425.0,
                600.0,
                1500.0,
                675.0,
                1575.0,
                750.0,
                1650.0,
                825.0,
                1800.0,
                900.0,
                1725.0,
                1875.0,
                2775.0,
                1950.0,
                2850.0,
                2025.0,
                2925.0,
                2100.0,
                3000.0,
                2175.0,
                3075.0,
                2250.0,
                3150.0,
                2325.0,
                3225.0,
                2400.0,
                3300.0,
                2475.0,
                3375.0,
                2550.0,
                3450.0,
                2625.0,
                3600.0,
                2700.0,
                3525.0,
                1875.0,
                2775.0,
                1950.0,
                2850.0,
                2025.0,
                2925.0,
                2100.0,
                3000.0,
                2175.0,
                3075.0,
                2250.0,
                3150.0,
                2325.0,
                3225.0,
                2400.0,
                3300.0,
                2475.0,
                3375.0,
                2550.0,
                3450.0,
                2625.0,
                3600.0,
                2700.0,
                3525.0,
                3675.0,
                4575.0,
                3750.0,
                4650.0,
                3825.0,
                4725.0,
                3900.0,
                4800.0,
                3975.0,
                4875.0,
                4050.0,
                4950.0,
                4125.0,
                5025.0,
                4200.0,
                5100.0,
                4275.0,
                5175.0,
                4350.0,
                5250.0,
                4425.0,
                5400.0,
                4500.0,
                5325.0,
                3675.0,
                4575.0,
                3750.0,
                4650.0,
                3825.0,
                4725.0,
                3900.0,
                4800.0,
                3975.0,
                4875.0,
                4050.0,
                4950.0,
                4125.0,
                5025.0,
                4200.0,
                5100.0,
                4275.0,
                5175.0,
                4350.0,
                5250.0,
                4425.0,
                5400.0,
                4500.0,
                5325.0,
                5475.0,
                6375.0,
                5550.0,
                6450.0,
                5625.0,
                6525.0,
                5700.0,
                6600.0,
                5775.0,
                6675.0,
                5850.0,
                6750.0,
                5925.0,
                6825.0,
                6000.0,
                6900.0,
                6075.0,
                6975.0,
                6150.0,
                7050.0,
                6225.0,
                7200.0,
                6300.0,
                7125.0,
                5475.0,
                6375.0,
                5550.0,
                6450.0,
                5625.0,
                6525.0,
                5700.0,
                6600.0,
                5775.0,
                6675.0,
                5850.0,
                6750.0,
                5925.0,
                6825.0,
                6000.0,
                6900.0,
                6075.0,
                6975.0,
                6150.0,
                7050.0,
                6225.0,
                7200.0,
                6300.0,
                7125.0,
                7275.0,
                8175.0,
                7350.0,
                8250.0,
                7425.0,
                8325.0,
                7500.0,
                8400.0,
                7575.0,
                8475.0,
                7650.0,
                8550.0,
                7725.0,
                8625.0,
                7800.0,
                8700.0,
                7875.0,
                8775.0,
                7950.0,
                8850.0,
                8025.0,
                9000.0,
                8100.0,
                8925.0,
                7275.0,
                8175.0,
                7350.0,
                8250.0,
                7425.0,
                8325.0,
                7500.0,
                8400.0,
                7575.0,
                8475.0,
                7650.0,
                8550.0,
                7725.0,
                8625.0,
                7800.0,
                8700.0,
                7875.0,
                8775.0,
                7950.0,
                8850.0,
                8025.0,
                9000.0,
                8100.0,
                8925.0,
                9075.0,
                9975.0,
                9150.0,
                10050.0,
                9225.0,
                10125.0,
                9300.0,
                10200.0,
                9375.0,
                10275.0,
                9450.0,
                10350.0,
                9525.0,
                10425.0,
                9600.0,
                10500.0,
                9675.0,
                10575.0,
                9750.0,
                10650.0,
                9825.0,
                10800.0,
                9900.0,
                10725.0,
                9075.0,
                9975.0,
                9150.0,
                10050.0,
                9225.0,
                10125.0,
                9300.0,
                10200.0,
                9375.0,
                10275.0,
                9450.0,
                10350.0,
                9525.0,
                10425.0,
                9600.0,
                10500.0,
                9675.0,
                10575.0,
                9750.0,
                10650.0,
                9825.0,
                10800.0,
                9900.0,
                10725.0
            ],
            "WindowCenter": [
                3335.0,
                2415.0,
                2921.0,
                2607.0,
                2848.0,
                2553.0,
                2778.0,
                2777.0,
                3216.0,
                3358.0,
                3154.0,
                3461.0,
                3102.0,
                2899.0,
                3181.0,
                3186.0,
                3424.0,
                3289.0,
                3765.0,
                3752.0,
                3952.0,
                3391.0,
                3689.0,
                3529.0,
                4301.0,
                4108.0,
                4407.0,
                4119.0,
                4305.0,
                4101.0,
                4627.0,
                4161.0,
                4837.0,
                4198.0,
                4457.0,
                4521.0,
                5401.0,
                4800.0,
                5782.0,
                5829.0,
                5131.0,
                5386.0,
                5457.0,
                4525.0,
                4607.0,
                4785.0,
                4677.0,
                3904.0,
                2493.0,
                1990.0,
                2247.0,
                2197.0,
                2155.0,
                2209.0,
                2187.0,
                2398.0,
                2512.0,
                2662.0,
                2481.0,
                2795.0,
                2393.0,
                2556.0,
                2554.0,
                2703.0,
                2721.0,
                2848.0,
                2998.0,
                3213.0,
                3132.0,
                2977.0,
                3307.0,
                3063.0,
                3319.0,
                3390.0,
                3427.0,
                3429.0,
                3495.0,
                3475.0,
                3583.0,
                3631.0,
                3859.0,
                3604.0,
                3577.0,
                3832.0,
                4279.0,
                4047.0,
                4552.0,
                4778.0,
                4131.0,
                4501.0,
                4503.0,
                3781.0,
                3799.0,
                4143.0,
                3900.0,
                3474.0,
                2482.0,
                1954.0,
                2241.0,
                2174.0,
                2138.0,
                2142.0,
                2091.0,
                2289.0,
                2403.0,
                2553.0,
                2376.0,
                2649.0,
                2365.0,
                2529.0,
                2526.0,
                2657.0,
                2638.0,
                2821.0,
                2948.0,
                3090.0,
                3024.0,
                2855.0,
                3081.0,
                2999.0,
                3215.0,
                3292.0,
                3261.0,
                3295.0,
                3322.0,
                3320.0,
                3483.0,
                3430.0,
                3605.0,
                3408.0,
                3400.0,
                3558.0,
                4054.0,
                3847.0,
                4482.0,
                4593.0,
                3901.0,
                4208.0,
