{
    "AcquisitionMatrixPE": 88,
    "AcquisitionNumber": 1,
    "AcquisitionTime": "15:32:59.000000",
    "BodyPartExamined": "BRAIN",
    "CoilString": "48HAP",
    "ConversionSoftware": "dcm2niix",
    "ConversionSoftwareVersion": "v1.0.20190410  GCC6.3.0",
    "DeviceSerialNumber": "0000000319335MR2",
    "EchoTime": 0.03,
    "EffectiveEchoSpacing": 0.000564,
    "FlipAngle": 75,
    "ImageOrientationPatientDICOM": [
        1,
        0,
        0,
        0,
        0.992468,
        -0.1225
    ],
    "ImageType": [
        "ORIGINAL",
        "PRIMARY",
        "OTHER"
    ],
    "ImagingFrequency": 127.754,
    "InPlanePhaseEncodingDirectionDICOM": "COL",
    "InstitutionName": "Iowa_MRRF",
    "IntendedFor": [
        "func/sub-10041_task-ThalHi_run-001_bold.nii.gz",
        "func/sub-10041_task-ThalHi_run-002_bold.nii.gz",
        "func/sub-10041_task-ThalHi_run-003_bold.nii.gz",
        "func/sub-10041_task-ThalHi_run-004_bold.nii.gz"
    ],
    "MRAcquisitionType": "2D",
    "MagneticFieldStrength": 3,
    "Manufacturer": "GE",
    "ManufacturersModelName": "SIGNA_Premier",
    "Modality": "MR",
    "PatientPosition": "HFS",
    "PercentPhaseFOV": 100,
    "PhaseEncodingDirection": "j-",
    "PhaseEncodingPolarityGE": "Unflipped",
    "PixelBandwidth": 3906.25,
    "ProcedureStepDescription": "HWANG_NET",
    "ProtocolName": "EPI_FM_pepolar=1",
    "ReconMatrixPE": 128,
    "RepetitionTime": 1.8,
    "SAR": 0.0750011,
    "ScanOptions": "SAT_GEMS_EDR_GEMS_MP_GEMS_EPI_GEMS_HYPERBAND_GEMS_FS",
    "ScanningSequence": "EP_GR",
    "SequenceVariant": "SS",
    "SeriesDescription": "EPI_FM_pepolar=1",
    "SeriesNumber": 5,
    "SliceThickness": 2.5,
    "SliceTiming": [
        0,
        0.9,
        0.075,
        0.975,
        0.15,
        1.05,
        0.225,
        1.125,
        0.3,
        1.2,
        0.375,
        1.275,
        0.45,
        1.35,
        0.525,
        1.425,
        0.6,
        1.5,
        0.675,
        1.575,
        0.75,
        1.725,
        0.825,
        1.65,
        0,
        0.9,
        0.075,
        0.975,
        0.15,
        1.05,
        0.225,
        1.125,
        0.3,
        1.2,
        0.375,
        1.275,
        0.45,
        1.35,
        0.525,
        1.425,
        0.6,
        1.5,
        0.675,
        1.575,
        0.75,
        1.725,
        0.825,
        1.65
    ],
    "SoftwareVersions": "28_LX_MR_Software_release:RX28.0_R05_2035.a",
    "SpacingBetweenSlices": 2.5,
    "StationName": "Iowa3T",
    "TotalReadoutTime": 0.071628,
    "TriggerDelayTime": 10650,
    "dcmmeta_affine": [
        [
            -1.7187999486923218,
            0.0,
            0.0,
            110.29979705810547
        ],
        [
            0.0,
            1.7058547735214233,
            -0.30625152587890625,
            -107.25936126708984
        ],
        [
            0.0,
            0.21055348217487335,
            2.481170654296875,
            -71.1048583984375
        ],
        [
            0.0,
            0.0,
            0.0,
            1.0
        ]
    ],
    "dcmmeta_reorient_transform": [
        [
            0.0,
            -1.0,
            0.0,
            127.0
        ],
        [
            1.0,
            0.0,
            0.0,
            0.0
        ],
        [
            0.0,
            0.0,
            -1.0,
            47.0
        ],
        [
            0.0,
            0.0,
            0.0,
            1.0
        ]
    ],
    "dcmmeta_shape": [
        128,
        128,
        48,
        6
    ],
    "dcmmeta_slice_dim": 2,
    "dcmmeta_version": 0.6,
    "global": {
        "const": {
            "AcquisitionMatrix": [
                88,
                0,
                0,
                88
            ],
            "AcquisitionNumber": 1,
            "AcquisitionTime": "153259",
            "AnatomicRegionSequence": [
                {
                    "CodeMeaning": "Brain",
                    "CodeValue": "T-A0100",
                    "CodingSchemeDesignator": "SRT"
                }
            ],
            "AngioFlag": "N",
            "BeatRejectionFlag": "Y",
            "BitsAllocated": 16,
            "BitsStored": 16,
            "BodyPartExamined": "BRAIN",
            "CardiacNumberOfImages": 0,
            "Columns": 128,
            "ContentTime": "153259",
            "EchoNumbers": 1,
            "EchoTime": 30.0,
            "EchoTrainLength": 1,
            "FlipAngle": 75.0,
            "GroupLength_0X40_0X0": 98,
            "GroupLength_0X7FE0_0X0": 32780,
            "HeartRate": 0,
            "HighBit": 15,
            "ImageType": [
                "ORIGINAL",
                "PRIMARY",
                "OTHER"
            ],
            "ImagedNucleus": "1H",
            "ImagesInAcquisition": 288,
            "ImagingFrequency": 127.753616,
            "InPlanePhaseEncodingDirection": "COL",
            "MRAcquisitionType": "2D",
            "MagneticFieldStrength": 3.0,
            "Manufacturer": "GE MEDICAL SYSTEMS",
            "ManufacturerModelName": "SIGNA Premier",
            "Modality": "MR",
            "NumberOfAverages": 1.0,
            "NumberOfTemporalPositions": 6,
            "PercentPhaseFieldOfView": 100.0,
            "PercentSampling": 100.0,
            "PerformedLocation": "Iowa",
            "PerformedProcedureStepStartTime": "152413",
            "PhotometricInterpretation": "MONOCHROME2",
            "PixelBandwidth": 3906.25,
            "PixelRepresentation": 1,
            "PixelSpacing": [
                1.7188,
                1.7188
            ],
            "ProtocolName": "HWANG_NET_THALHI",
            "ReceiveCoilName": "48HAP",
            "ReconstructionDiameter": 220.0,
            "ReferencedPerformedProcedureStepSequence": [
                {
                    "ReferencedSOPClassUID": "1.2.840.10008.3.1.2.3.3",
                    "ReferencedSOPInstanceUID": "1.2.840.113619.6.475.11513239761324505129679263568605976587"
                }
            ],
            "RepetitionTime": 1800.0,
            "Rows": 128,
            "SAR": 0.0750011,
            "SamplesPerPixel": 1,
            "ScanOptions": [
                "SAT_GEMS",
                "EDR_GEMS",
                "MP_GEMS",
                "EPI_GEMS",
                "HYPERBAND_GEMS",
                "FS"
            ],
            "ScanningSequence": [
                "EP",
                "GR"
            ],
            "SequenceVariant": "SS",
            "SeriesDescription": "EPI FM pepolar=1",
            "SeriesNumber": 5,
            "SeriesTime": "153259",
            "SliceThickness": 2.5,
            "SmallestImagePixelValue": 0,
            "SoftwareVersions": [
                "28",
                "LX",
                "MR Software release:RX28.0_R05_2035.a"
            ],
            "SpacingBetweenSlices": 2.5,
            "SpecificCharacterSet": "ISO_IR 100",
            "StackID": "1",
            "StudyID": "1536",
            "StudyTime": "152418",
            "TriggerWindow": 0,
            "VariableFlipAngleFlag": "N"
        },
        "slices": {
            "InstanceNumber": [
                1,
                2,
                3,
                4,
                5,
                6,
                7,
                8,
                9,
                10,
                11,
                12,
                13,
                14,
                15,
                16,
                17,
                18,
                19,
                20,
                21,
                22,
                23,
                24,
                25,
                26,
                27,
                28,
                29,
                30,
                31,
                32,
                33,
                34,
                35,
                36,
                37,
                38,
                39,
                40,
                41,
                42,
                43,
                44,
                45,
                46,
                47,
                48,
                49,
                50,
                51,
                52,
                53,
                54,
                55,
                56,
                57,
                58,
                59,
                60,
                61,
                62,
                63,
                64,
                65,
                66,
                67,
                68,
                69,
                70,
                71,
                72,
                73,
                74,
                75,
                76,
                77,
                78,
                79,
                80,
                81,
                82,
                83,
                84,
                85,
                86,
                87,
                88,
                89,
                90,
                91,
                92,
                93,
                94,
                95,
                96,
                97,
                98,
                99,
                100,
                101,
                102,
                103,
                104,
                105,
                106,
                107,
                108,
                109,
                110,
                111,
                112,
                113,
                114,
                115,
                116,
                117,
                118,
                119,
                120,
                121,
                122,
                123,
                124,
                125,
                126,
                127,
                128,
                129,
                130,
                131,
                132,
                133,
                134,
                135,
                136,
                137,
                138,
                139,
                140,
                141,
                142,
                143,
                144,
                145,
                146,
                147,
                148,
                149,
                150,
                151,
                152,
                153,
                154,
                155,
                156,
                157,
                158,
                159,
                160,
                161,
                162,
                163,
                164,
                165,
                166,
                167,
                168,
                169,
                170,
                171,
                172,
                173,
                174,
                175,
                176,
                177,
                178,
                179,
                180,
                181,
                182,
                183,
                184,
                185,
                186,
                187,
                188,
                189,
                190,
                191,
                192,
                193,
                194,
                195,
                196,
                197,
                198,
                199,
                200,
                201,
                202,
                203,
                204,
                205,
                206,
                207,
                208,
                209,
                210,
                211,
                212,
                213,
                214,
                215,
                216,
                217,
                218,
                219,
                220,
                221,
                222,
                223,
                224,
                225,
                226,
                227,
                228,
                229,
                230,
                231,
                232,
                233,
                234,
                235,
                236,
                237,
                238,
                239,
                240,
                241,
                242,
                243,
                244,
                245,
                246,
                247,
                248,
                249,
                250,
                251,
                252,
                253,
                254,
                255,
                256,
                257,
                258,
                259,
                260,
                261,
                262,
                263,
                264,
                265,
                266,
                267,
                268,
                269,
                270,
                271,
                272,
                273,
                274,
                275,
                276,
                277,
                278,
                279,
                280,
                281,
                282,
                283,
                284,
                285,
                286,
                287,
                288
            ],
            "LargestImagePixelValue": [
                5428,
                4187,
                4796,
                4268,
                4794,
                4480,
                4902,
                5490,
                5686,
                4873,
                5286,
                4345,
                6322,
                6281,
                5560,
                5203,
                5471,
                5160,
                5960,
                5573,
                6587,
                6175,
                6149,
                5977,
                6893,
                6738,
                7212,
                6066,
                7236,
                6335,
                7171,
                7586,
                7537,
                8171,
                8373,
                8646,
                8418,
                8891,
                8619,
                7960,
                8212,
                9154,
                8620,
                8465,
                9889,
                9286,
                8955,
                8154,
                4317,
                3433,
                3489,
                3392,
                3598,
                3708,
                3708,
                3778,
                4195,
                4007,
                4057,
                3560,
                5164,
                5070,
                4446,
                4187,
                4341,
                4145,
                4643,
                4313,
                4729,
                4535,
                4791,
                4738,
                4998,
                5152,
                6177,
                5132,
                5713,
                5291,
                5748,
                6523,
                6076,
                6662,
                6745,
                6917,
                7249,
                7352,
                7110,
                7086,
                7531,
                7643,
                6895,
                7112,
                8115,
                7749,
                7294,
                7134,
                3382,
                3402,
                3333,
                3280,
                3435,
                3576,
                3453,
                3580,
                3778,
                3522,
                3697,
                3541,
                4621,
                4737,
                4044,
                3999,
                4184,
                3956,
                4265,
                4160,
                4414,
                4306,
                4608,
                4665,
                4676,
                5062,
                5612,
                4878,
                5337,
                5244,
                5440,
                6080,
                5663,
                6133,
                6182,
                6408,
                6126,
                6826,
                6591,
                6660,
                7074,
                7291,
                6370,
                6708,
                7478,
                7220,
                6759,
                6596,
                3011,
                3385,
                3222,
                3275,
                3482,
                3515,
                3443,
                3404,
                3530,
                3487,
                3568,
                5102,
                4173,
                4035,
                3981,
                3937,
                4044,
                3975,
                4260,
                4114,
                4411,
                4250,
                4594,
                4617,
                4707,
                5049,
                5572,
                4829,
                5332,
                5186,
                5329,
                6015,
                5539,
                6009,
                6005,
                6251,
                6469,
                6594,
                6333,
                6603,
                6870,
                7092,
                6223,
                6503,
                7213,
                7024,
                6370,
                6497,
                3804,
                3370,
                3214,
                3317,
                3476,
                3485,
                3497,
                3390,
                3483,
                3295,
                3632,
                3435,
                3760,
                3869,
                3842,
                3918,
                4157,
                3976,
                4273,
                4126,
                4332,
                4246,
                4624,
                4665,
                4642,
                4978,
                5553,
                4813,
                5260,
                5149,
                5352,
                5832,
                5471,
                5915,
                5973,
                6205,
                5860,
                6547,
                6376,
                6521,
                6739,
                6880,
                6127,
                6477,
                7128,
                6935,
                6479,
                6478,
                3193,
                3394,
                3250,
                3297,
                3426,
                3487,
                3440,
                3359,
                3628,
                4550,
                3780,
                3606,
                3624,
                3861,
                4366,
                3940,
                4194,
                3947,
                4309,
                4139,
                4362,
                4252,
                4589,
                4667,
                4667,
                4966,
                5492,
                4791,
                5191,
                5212,
                5390,
                5866,
                5500,
                5908,
                5878,
                6214,
                6376,
                6582,
                6368,
                6483,
                6730,
                7076,
                6133,
                6430,
                7151,
                6920,
                6455,
                6220
            ],
            "TriggerTime": [
                75.0,
                975.0,
                150.0,
                1050.0,
                225.0,
                1125.0,
                300.0,
                1200.0,
                375.0,
                1275.0,
                450.0,
                1350.0,
                525.0,
                1425.0,
                600.0,
                1500.0,
                675.0,
                1575.0,
                750.0,
                1650.0,
                825.0,
                1800.0,
                900.0,
                1725.0,
                75.0,
                975.0,
                150.0,
                1050.0,
                225.0,
                1125.0,
                300.0,
                1200.0,
                375.0,
                1275.0,
                450.0,
                1350.0,
                525.0,
                1425.0,
                600.0,
                1500.0,
                675.0,
                1575.0,
                750.0,
                1650.0,
                825.0,
                1800.0,
                900.0,
                1725.0,
                1875.0,
                2775.0,
                1950.0,
                2850.0,
                2025.0,
                2925.0,
                2100.0,
                3000.0,
                2175.0,
                3075.0,
                2250.0,
                3150.0,
                2325.0,
                3225.0,
                2400.0,
                3300.0,
                2475.0,
                3375.0,
                2550.0,
                3450.0,
                2625.0,
                3600.0,
                2700.0,
                3525.0,
                1875.0,
                2775.0,
                1950.0,
                2850.0,
                2025.0,
                2925.0,
                2100.0,
                3000.0,
                2175.0,
                3075.0,
                2250.0,
                3150.0,
                2325.0,
                3225.0,
                2400.0,
                3300.0,
                2475.0,
                3375.0,
                2550.0,
                3450.0,
                2625.0,
                3600.0,
                2700.0,
                3525.0,
                3675.0,
                4575.0,
                3750.0,
                4650.0,
                3825.0,
                4725.0,
                3900.0,
                4800.0,
                3975.0,
                4875.0,
                4050.0,
                4950.0,
                4125.0,
                5025.0,
                4200.0,
                5100.0,
                4275.0,
                5175.0,
                4350.0,
                5250.0,
                4425.0,
                5400.0,
                4500.0,
                5325.0,
                3675.0,
                4575.0,
                3750.0,
                4650.0,
                3825.0,
                4725.0,
                3900.0,
                4800.0,
                3975.0,
                4875.0,
                4050.0,
                4950.0,
                4125.0,
                5025.0,
                4200.0,
                5100.0,
                4275.0,
                5175.0,
                4350.0,
                5250.0,
                4425.0,
                5400.0,
                4500.0,
                5325.0,
                5475.0,
                6375.0,
                5550.0,
                6450.0,
                5625.0,
                6525.0,
                5700.0,
                6600.0,
                5775.0,
                6675.0,
                5850.0,
                6750.0,
                5925.0,
                6825.0,
                6000.0,
                6900.0,
                6075.0,
                6975.0,
                6150.0,
                7050.0,
                6225.0,
                7200.0,
                6300.0,
                7125.0,
                5475.0,
                6375.0,
                5550.0,
                6450.0,
                5625.0,
                6525.0,
                5700.0,
                6600.0,
                5775.0,
                6675.0,
                5850.0,
                6750.0,
                5925.0,
                6825.0,
                6000.0,
                6900.0,
                6075.0,
                6975.0,
                6150.0,
                7050.0,
                6225.0,
                7200.0,
                6300.0,
                7125.0,
                7275.0,
                8175.0,
                7350.0,
                8250.0,
                7425.0,
                8325.0,
                7500.0,
                8400.0,
                7575.0,
                8475.0,
                7650.0,
                8550.0,
                7725.0,
                8625.0,
                7800.0,
                8700.0,
                7875.0,
                8775.0,
                7950.0,
                8850.0,
                8025.0,
                9000.0,
                8100.0,
                8925.0,
                7275.0,
                8175.0,
                7350.0,
                8250.0,
                7425.0,
                8325.0,
                7500.0,
                8400.0,
                7575.0,
                8475.0,
                7650.0,
                8550.0,
                7725.0,
                8625.0,
                7800.0,
                8700.0,
                7875.0,
                8775.0,
                7950.0,
                8850.0,
                8025.0,
                9000.0,
                8100.0,
                8925.0,
                9075.0,
                9975.0,
                9150.0,
                10050.0,
                9225.0,
                10125.0,
                9300.0,
                10200.0,
                9375.0,
                10275.0,
                9450.0,
                10350.0,
                9525.0,
                10425.0,
                9600.0,
                10500.0,
                9675.0,
                10575.0,
                9750.0,
                10650.0,
                9825.0,
                10800.0,
                9900.0,
                10725.0,
                9075.0,
                9975.0,
                9150.0,
                10050.0,
                9225.0,
                10125.0,
                9300.0,
                10200.0,
                9375.0,
                10275.0,
                9450.0,
                10350.0,
                9525.0,
                10425.0,
                9600.0,
                10500.0,
                9675.0,
                10575.0,
                9750.0,
                10650.0,
                9825.0,
                10800.0,
                9900.0,
                10725.0
            ],
            "WindowCenter": [
                3256.0,
                2512.0,
                2877.0,
                2560.0,
                2876.0,
                2688.0,
                2941.0,
                3294.0,
                3411.0,
                2923.0,
                3171.0,
                2607.0,
                3793.0,
                3768.0,
                3336.0,
                3121.0,
                3282.0,
                3096.0,
                3576.0,
                3343.0,
                3952.0,
                3705.0,
                3689.0,
                3586.0,
                4135.0,
                4042.0,
                4327.0,
                3639.0,
                4341.0,
                3801.0,
                4302.0,
                4551.0,
                4522.0,
                4902.0,
                5023.0,
                5187.0,
                5050.0,
                5334.0,
                5171.0,
                4776.0,
                4927.0,
                5492.0,
                5172.0,
                5079.0,
                5933.0,
                5571.0,
                5373.0,
                4892.0,
                2590.0,
                2059.0,
                2093.0,
                2035.0,
                2158.0,
                2224.0,
                2224.0,
                2266.0,
                2517.0,
                2404.0,
                2434.0,
                2136.0,
                3098.0,
                3042.0,
                2667.0,
                2512.0,
                2604.0,
                2487.0,
                2785.0,
                2587.0,
                2837.0,
                2721.0,
                2874.0,
                2842.0,
                2998.0,
                3091.0,
                3706.0,
                3079.0,
                3427.0,
                3174.0,
                3448.0,
                3913.0,
                3645.0,
                3997.0,
                4047.0,
                4150.0,
                4349.0,
                4411.0,
                4266.0,
                4251.0,
                4518.0,
                4585.0,
                4137.0,
                4267.0,
                4869.0,
                4649.0,
                4376.0,
                4280.0,
                2029.0,
                2041.0,
                1999.0,
                1968.0,
                2061.0,
                2145.0,
                2071.0,
                2148.0,
                2266.0,
                2113.0,
                2218.0,
                2124.0,
                2772.0,
                2842.0,
                2426.0,
                2399.0,
                2510.0,
                2373.0,
                2559.0,
                2496.0,
                2648.0,
                2583.0,
                2764.0,
                2799.0,
                2805.0,
                3037.0,
                3367.0,
                2926.0,
                3202.0,
                3146.0,
                3264.0,
                3648.0,
                3397.0,
                3679.0,
                3709.0,
                3844.0,
                3675.0,
                4095.0,
                3954.0,
                3996.0,
                4244.0,
                4374.0,
                3822.0,
                4024.0,
                4486.0,
                4332.0,
                4055.0,
                3957.0,
                1806.0,
