{
    "AcquisitionMatrixPE": 88,
    "AcquisitionNumber": 1,
    "AcquisitionTime": "16:03:53.000000",
    "BodyPartExamined": "BRAIN",
    "CoilString": "48HAP",
    "ConversionSoftware": "dcm2niix",
    "ConversionSoftwareVersion": "v1.0.20190410  GCC6.3.0",
    "DeviceSerialNumber": "0000000319335MR2",
    "EchoTime": 0.03,
    "EffectiveEchoSpacing": 0.000564,
    "FlipAngle": 75,
    "ImageOrientationPatientDICOM": [
        1,
        0,
        0,
        0,
        0.992468,
        -0.1225
    ],
    "ImageType": [
        "ORIGINAL",
        "PRIMARY",
        "OTHER"
    ],
    "ImagingFrequency": 127.754,
    "InPlanePhaseEncodingDirectionDICOM": "COL",
    "InstitutionName": "Iowa_MRRF",
    "IntendedFor": [
        "func/sub-10041_task-ThalHi_run-005_bold.nii.gz",
        "func/sub-10041_task-ThalHi_run-006_bold.nii.gz",
        "func/sub-10041_task-ThalHi_run-007_bold.nii.gz",
        "func/sub-10041_task-ThalHi_run-008_bold.nii.gz"
    ],
    "MRAcquisitionType": "2D",
    "MagneticFieldStrength": 3,
    "Manufacturer": "GE",
    "ManufacturersModelName": "SIGNA_Premier",
    "Modality": "MR",
    "PatientPosition": "HFS",
    "PercentPhaseFOV": 100,
    "PhaseEncodingDirection": "j-",
    "PhaseEncodingPolarityGE": "Unflipped",
    "PixelBandwidth": 3906.25,
    "ProcedureStepDescription": "HWANG_NET",
    "ProtocolName": "EPI_FM_pepolar=1",
    "ReconMatrixPE": 128,
    "RepetitionTime": 1.8,
    "SAR": 0.0750011,
    "ScanOptions": "SAT_GEMS_EDR_GEMS_MP_GEMS_EPI_GEMS_HYPERBAND_GEMS_FS",
    "ScanningSequence": "EP_GR",
    "SequenceVariant": "SS",
    "SeriesDescription": "EPI_FM_pepolar=1",
    "SeriesNumber": 11,
    "SliceThickness": 2.5,
    "SliceTiming": [
        0,
        0.9,
        0.075,
        0.975,
        0.15,
        1.05,
        0.225,
        1.125,
        0.3,
        1.2,
        0.375,
        1.275,
        0.45,
        1.35,
        0.525,
        1.425,
        0.6,
        1.5,
        0.675,
        1.575,
        0.75,
        1.725,
        0.825,
        1.65,
        0,
        0.9,
        0.075,
        0.975,
        0.15,
        1.05,
        0.225,
        1.125,
        0.3,
        1.2,
        0.375,
        1.275,
        0.45,
        1.35,
        0.525,
        1.425,
        0.6,
        1.5,
        0.675,
        1.575,
        0.75,
        1.725,
        0.825,
        1.65
    ],
    "SoftwareVersions": "28_LX_MR_Software_release:RX28.0_R05_2035.a",
    "SpacingBetweenSlices": 2.5,
    "StationName": "Iowa3T",
    "TotalReadoutTime": 0.071628,
    "TriggerDelayTime": 10650,
    "dcmmeta_affine": [
        [
            -1.7187999486923218,
            0.0,
            0.0,
            110.29979705810547
        ],
        [
            0.0,
            1.7058547735214233,
            -0.30625152587890625,
            -107.25936126708984
        ],
        [
            0.0,
            0.21055348217487335,
            2.481170654296875,
            -71.1048583984375
        ],
        [
            0.0,
            0.0,
            0.0,
            1.0
        ]
    ],
    "dcmmeta_reorient_transform": [
        [
            0.0,
            -1.0,
            0.0,
            127.0
        ],
        [
            1.0,
            0.0,
            0.0,
            0.0
        ],
        [
            0.0,
            0.0,
            -1.0,
            47.0
        ],
        [
            0.0,
            0.0,
            0.0,
            1.0
        ]
    ],
    "dcmmeta_shape": [
        128,
        128,
        48,
        6
    ],
    "dcmmeta_slice_dim": 2,
    "dcmmeta_version": 0.6,
    "global": {
        "const": {
            "AcquisitionMatrix": [
                88,
                0,
                0,
                88
            ],
            "AcquisitionNumber": 1,
            "AcquisitionTime": "160353",
            "AnatomicRegionSequence": [
                {
                    "CodeMeaning": "Brain",
                    "CodeValue": "T-A0100",
                    "CodingSchemeDesignator": "SRT"
                }
            ],
            "AngioFlag": "N",
            "BeatRejectionFlag": "Y",
            "BitsAllocated": 16,
            "BitsStored": 16,
            "BodyPartExamined": "BRAIN",
            "CardiacNumberOfImages": 0,
            "Columns": 128,
            "ContentTime": "160353",
            "EchoNumbers": 1,
            "EchoTime": 30.0,
            "EchoTrainLength": 1,
            "FlipAngle": 75.0,
            "GroupLength_0X40_0X0": 98,
            "GroupLength_0X7FE0_0X0": 32780,
            "HeartRate": 0,
            "HighBit": 15,
            "ImageType": [
                "ORIGINAL",
                "PRIMARY",
                "OTHER"
            ],
            "ImagedNucleus": "1H",
            "ImagesInAcquisition": 288,
            "ImagingFrequency": 127.753616,
            "InPlanePhaseEncodingDirection": "COL",
            "MRAcquisitionType": "2D",
            "MagneticFieldStrength": 3.0,
            "Manufacturer": "GE MEDICAL SYSTEMS",
            "ManufacturerModelName": "SIGNA Premier",
            "Modality": "MR",
            "NumberOfAverages": 1.0,
            "NumberOfTemporalPositions": 6,
            "PercentPhaseFieldOfView": 100.0,
            "PercentSampling": 100.0,
            "PerformedLocation": "Iowa",
            "PerformedProcedureStepStartTime": "152413",
            "PhotometricInterpretation": "MONOCHROME2",
            "PixelBandwidth": 3906.25,
            "PixelRepresentation": 1,
            "PixelSpacing": [
                1.7188,
                1.7188
            ],
            "ProtocolName": "HWANG_NET_THALHI",
            "ReceiveCoilName": "48HAP",
            "ReconstructionDiameter": 220.0,
            "ReferencedPerformedProcedureStepSequence": [
                {
                    "ReferencedSOPClassUID": "1.2.840.10008.3.1.2.3.3",
                    "ReferencedSOPInstanceUID": "1.2.840.113619.6.475.11513239761324505129679263568605976587"
                }
            ],
            "RepetitionTime": 1800.0,
            "Rows": 128,
            "SAR": 0.0750011,
            "SamplesPerPixel": 1,
            "ScanOptions": [
                "SAT_GEMS",
                "EDR_GEMS",
                "MP_GEMS",
                "EPI_GEMS",
                "HYPERBAND_GEMS",
                "FS"
            ],
            "ScanningSequence": [
                "EP",
                "GR"
            ],
            "SequenceVariant": "SS",
            "SeriesDescription": "EPI FM pepolar=1",
            "SeriesNumber": 11,
            "SeriesTime": "160353",
            "SliceThickness": 2.5,
            "SmallestImagePixelValue": 0,
            "SoftwareVersions": [
                "28",
                "LX",
                "MR Software release:RX28.0_R05_2035.a"
            ],
            "SpacingBetweenSlices": 2.5,
            "SpecificCharacterSet": "ISO_IR 100",
            "StackID": "1",
            "StudyID": "1536",
            "StudyTime": "152418",
            "TriggerWindow": 0,
            "VariableFlipAngleFlag": "N"
        },
        "slices": {
            "InstanceNumber": [
                1,
                2,
                3,
                4,
                5,
                6,
                7,
                8,
                9,
                10,
                11,
                12,
                13,
                14,
                15,
                16,
                17,
                18,
                19,
                20,
                21,
                22,
                23,
                24,
                25,
                26,
                27,
                28,
                29,
                30,
                31,
                32,
                33,
                34,
                35,
                36,
                37,
                38,
                39,
                40,
                41,
                42,
                43,
                44,
                45,
                46,
                47,
                48,
                49,
                50,
                51,
                52,
                53,
                54,
                55,
                56,
                57,
                58,
                59,
                60,
                61,
                62,
                63,
                64,
                65,
                66,
                67,
                68,
                69,
                70,
                71,
                72,
                73,
                74,
                75,
                76,
                77,
                78,
                79,
                80,
                81,
                82,
                83,
                84,
                85,
                86,
                87,
                88,
                89,
                90,
                91,
                92,
                93,
                94,
                95,
                96,
                97,
                98,
                99,
                100,
                101,
                102,
                103,
                104,
                105,
                106,
                107,
                108,
                109,
                110,
                111,
                112,
                113,
                114,
                115,
                116,
                117,
                118,
                119,
                120,
                121,
                122,
                123,
                124,
                125,
                126,
                127,
                128,
                129,
                130,
                131,
                132,
                133,
                134,
                135,
                136,
                137,
                138,
                139,
                140,
                141,
                142,
                143,
                144,
                145,
                146,
                147,
                148,
                149,
                150,
                151,
                152,
                153,
                154,
                155,
                156,
                157,
                158,
                159,
                160,
                161,
                162,
                163,
                164,
                165,
                166,
                167,
                168,
                169,
                170,
                171,
                172,
                173,
                174,
                175,
                176,
                177,
                178,
                179,
                180,
                181,
                182,
                183,
                184,
                185,
                186,
                187,
                188,
                189,
                190,
                191,
                192,
                193,
                194,
                195,
                196,
                197,
                198,
                199,
                200,
                201,
                202,
                203,
                204,
                205,
                206,
                207,
                208,
                209,
                210,
                211,
                212,
                213,
                214,
                215,
                216,
                217,
                218,
                219,
                220,
                221,
                222,
                223,
                224,
                225,
                226,
                227,
                228,
                229,
                230,
                231,
                232,
                233,
                234,
                235,
                236,
                237,
                238,
                239,
                240,
                241,
                242,
                243,
                244,
                245,
                246,
                247,
                248,
                249,
                250,
                251,
                252,
                253,
                254,
                255,
                256,
                257,
                258,
                259,
                260,
                261,
                262,
                263,
                264,
                265,
                266,
                267,
                268,
                269,
                270,
                271,
                272,
                273,
                274,
                275,
                276,
                277,
                278,
                279,
                280,
                281,
                282,
                283,
                284,
                285,
                286,
                287,
                288
            ],
            "LargestImagePixelValue": [
                4717,
                4409,
                4709,
                5268,
                5036,
                4574,
                5009,
                5013,
                5250,
                5133,
                5125,
                5323,
                5254,
                5127,
                5340,
                5216,
                5386,
                5124,
                5658,
                5558,
                5775,
                5939,
                5956,
                5975,
                6983,
                5920,
                6978,
                6012,
                6642,
                6246,
                6792,
                7128,
                7056,
                7166,
                7889,
                8098,
                8143,
                8874,
                8476,
                8151,
                7957,
                8093,
                8995,
                8389,
                8798,
                8672,
                8537,
                7794,
                4277,
                3645,
                4221,
                4226,
                4073,
                3908,
                4079,
                3715,
                4090,
                3795,
                3957,
                3977,
                3904,
                3882,
                4470,
                4330,
                4245,
                4337,
                4304,
                4269,
                4659,
                4665,
                4635,
                4819,
                5010,
                4911,
                5737,
                5190,
                5142,
                5378,
                5533,
                6211,
                6050,
                6002,
                6625,
                6626,
                6606,
                7536,
                7152,
                7035,
                7256,
                7100,
                7707,
                7148,
                7548,
                7496,
                7384,
                6921,
                3304,
                3516,
                3417,
                3481,
                3665,
                3731,
                3874,
                3686,
                3805,
                3544,
                3646,
                3827,
                3780,
                3697,
                4221,
                4078,
                3991,
                4224,
                4112,
                4228,
                4584,
                4457,
                4503,
                4722,
                4639,
                4755,
                5393,
                5013,
                5094,
                5201,
                5292,
                6002,
                5681,
                5654,
                6141,
                6209,
                6198,
                7026,
                6651,
                6729,
                6477,
                6738,
                7321,
                6729,
                7152,
                7019,
                6894,
                6511,
                3589,
                3570,
                3413,
                3534,
                3618,
                3825,
                3858,
                3581,
                3561,
                3488,
                3678,
                3629,
                3672,
                3587,
                4078,
                4058,
                4162,
                4183,
                4071,
                4215,
                4552,
                4439,
                4406,
                4624,
                4586,
                4741,
                5186,
                4919,
                5033,
                5137,
                5181,
                5882,
                5578,
                5634,
                5973,
                6119,
                6150,
                6946,
                6592,
                6626,
                6652,
                6702,
                7133,
                6626,
                6991,
                6898,
                6777,
                6492,
                4019,
                3685,
                3376,
                3528,
                3664,
                3688,
                3770,
                3606,
                3623,
                3563,
                3594,
                3727,
                3734,
                3553,
                4118,
                3978,
                4155,
                4191,
                4025,
                4194,
                4472,
                4319,
                4372,
                4648,
                4600,
                4719,
                5343,
                4949,
                5002,
                5095,
                5162,
                5790,
                5531,
                5515,
                5945,
                6051,
                6045,
                6845,
                6399,
                6497,
                6659,
                6628,
                7051,
                6519,
                6873,
                6854,
                6714,
                6409,
                3772,
                3375,
                3366,
                3561,
                3658,
                3783,
                3789,
                3589,
                3598,
                3626,
                3550,
                3679,
                3719,
                3569,
                3927,
                3955,
                4184,
                4251,
                4078,
                4221,
                4530,
                4417,
                4405,
                4648,
                4624,
                4724,
                5266,
                4918,
                4813,
                5134,
                5180,
                5794,
                5338,
                5598,
                5937,
                6073,
                6056,
                6859,
                6430,
                6505,
                6480,
                6553,
                6941,
                6486,
                6871,
                6795,
                6676,
                6314
            ],
            "TriggerTime": [
                75.0,
                975.0,
                150.0,
                1050.0,
                225.0,
                1125.0,
                300.0,
                1200.0,
                375.0,
                1275.0,
                450.0,
                1350.0,
                525.0,
                1425.0,
                600.0,
                1500.0,
                675.0,
                1575.0,
                750.0,
                1650.0,
                825.0,
                1800.0,
                900.0,
                1725.0,
                75.0,
                975.0,
                150.0,
                1050.0,
                225.0,
                1125.0,
                300.0,
                1200.0,
                375.0,
                1275.0,
                450.0,
                1350.0,
                525.0,
                1425.0,
                600.0,
                1500.0,
                675.0,
                1575.0,
                750.0,
                1650.0,
                825.0,
                1800.0,
                900.0,
                1725.0,
                1875.0,
                2775.0,
                1950.0,
                2850.0,
                2025.0,
                2925.0,
                2100.0,
                3000.0,
                2175.0,
                3075.0,
                2250.0,
                3150.0,
                2325.0,
                3225.0,
                2400.0,
                3300.0,
                2475.0,
                3375.0,
                2550.0,
                3450.0,
                2625.0,
                3600.0,
                2700.0,
                3525.0,
                1875.0,
                2775.0,
                1950.0,
                2850.0,
                2025.0,
                2925.0,
                2100.0,
                3000.0,
                2175.0,
                3075.0,
                2250.0,
                3150.0,
                2325.0,
                3225.0,
                2400.0,
                3300.0,
                2475.0,
                3375.0,
                2550.0,
                3450.0,
                2625.0,
                3600.0,
                2700.0,
                3525.0,
                3675.0,
                4575.0,
                3750.0,
                4650.0,
                3825.0,
                4725.0,
                3900.0,
                4800.0,
                3975.0,
                4875.0,
                4050.0,
                4950.0,
                4125.0,
                5025.0,
                4200.0,
                5100.0,
                4275.0,
                5175.0,
                4350.0,
                5250.0,
                4425.0,
                5400.0,
                4500.0,
                5325.0,
                3675.0,
                4575.0,
                3750.0,
                4650.0,
                3825.0,
                4725.0,
                3900.0,
                4800.0,
                3975.0,
                4875.0,
                4050.0,
                4950.0,
                4125.0,
                5025.0,
                4200.0,
                5100.0,
                4275.0,
                5175.0,
                4350.0,
                5250.0,
                4425.0,
                5400.0,
                4500.0,
                5325.0,
                5475.0,
                6375.0,
                5550.0,
                6450.0,
                5625.0,
                6525.0,
                5700.0,
                6600.0,
                5775.0,
                6675.0,
                5850.0,
                6750.0,
                5925.0,
                6825.0,
                6000.0,
                6900.0,
                6075.0,
                6975.0,
                6150.0,
                7050.0,
                6225.0,
                7200.0,
                6300.0,
                7125.0,
                5475.0,
                6375.0,
                5550.0,
                6450.0,
                5625.0,
                6525.0,
                5700.0,
                6600.0,
                5775.0,
                6675.0,
                5850.0,
                6750.0,
                5925.0,
                6825.0,
                6000.0,
                6900.0,
                6075.0,
                6975.0,
                6150.0,
                7050.0,
                6225.0,
                7200.0,
                6300.0,
                7125.0,
                7275.0,
                8175.0,
                7350.0,
                8250.0,
                7425.0,
                8325.0,
                7500.0,
                8400.0,
                7575.0,
                8475.0,
                7650.0,
                8550.0,
                7725.0,
                8625.0,
                7800.0,
                8700.0,
                7875.0,
                8775.0,
                7950.0,
                8850.0,
                8025.0,
                9000.0,
                8100.0,
                8925.0,
                7275.0,
                8175.0,
                7350.0,
                8250.0,
                7425.0,
                8325.0,
                7500.0,
                8400.0,
                7575.0,
                8475.0,
                7650.0,
                8550.0,
                7725.0,
                8625.0,
                7800.0,
                8700.0,
                7875.0,
                8775.0,
                7950.0,
                8850.0,
                8025.0,
                9000.0,
                8100.0,
                8925.0,
                9075.0,
                9975.0,
                9150.0,
                10050.0,
                9225.0,
                10125.0,
                9300.0,
                10200.0,
                9375.0,
                10275.0,
                9450.0,
                10350.0,
                9525.0,
                10425.0,
                9600.0,
                10500.0,
                9675.0,
                10575.0,
                9750.0,
                10650.0,
                9825.0,
                10800.0,
                9900.0,
                10725.0,
                9075.0,
                9975.0,
                9150.0,
                10050.0,
                9225.0,
                10125.0,
                9300.0,
                10200.0,
                9375.0,
                10275.0,
                9450.0,
                10350.0,
                9525.0,
                10425.0,
                9600.0,
                10500.0,
                9675.0,
                10575.0,
                9750.0,
                10650.0,
                9825.0,
                10800.0,
                9900.0,
                10725.0
            ],
            "WindowCenter": [
                2830.0,
                2645.0,
                2825.0,
                3160.0,
                3021.0,
                2744.0,
                3005.0,
                3007.0,
                3150.0,
                3079.0,
                3075.0,
                3193.0,
                3152.0,
                3076.0,
                3204.0,
                3129.0,
                3231.0,
                3074.0,
                3394.0,
                3334.0,
                3465.0,
                3563.0,
                3573.0,
                3585.0,
                4189.0,
                3552.0,
                4186.0,
                3607.0,
                3985.0,
                3747.0,
                4075.0,
                4276.0,
                4233.0,
                4299.0,
                4733.0,
                4858.0,
                4885.0,
                5324.0,
                5085.0,
                4890.0,
                4774.0,
                4855.0,
                5397.0,
                5033.0,
                5278.0,
                5203.0,
                5122.0,
                4676.0,
                2566.0,
                2187.0,
                2532.0,
                2535.0,
                2443.0,
                2344.0,
                2447.0,
                2229.0,
                2454.0,
                2277.0,
                2374.0,
                2386.0,
                2342.0,
                2329.0,
                2682.0,
                2598.0,
                2547.0,
                2602.0,
                2582.0,
                2561.0,
                2795.0,
                2799.0,
                2781.0,
                2891.0,
                3006.0,
                2946.0,
                3442.0,
                3114.0,
                3085.0,
                3226.0,
                3319.0,
                3726.0,
                3630.0,
                3601.0,
                3975.0,
                3975.0,
                3963.0,
                4521.0,
                4291.0,
                4221.0,
                4353.0,
                4260.0,
                4624.0,
                4288.0,
                4528.0,
                4497.0,
                4430.0,
                4152.0,
                1982.0,
                2109.0,
                2050.0,
                2088.0,
                2199.0,
                2238.0,
                2324.0,
                2211.0,
                2283.0,
                2126.0,
                2187.0,
                2296.0,
                2268.0,
                2218.0,
                2532.0,
                2446.0,
                2394.0,
                2534.0,
                2467.0,
                2536.0,
                2750.0,
                2674.0,
                2701.0,
                2833.0,
                2783.0,
                2853.0,
                3235.0,
                3007.0,
                3056.0,
                3120.0,
                3175.0,
                3601.0,
                3408.0,
                3392.0,
                3684.0,
                3725.0,
                3718.0,
                4215.0,
                3990.0,
                4037.0,
                3886.0,
                4042.0,
                4392.0,
                4037.0,
                4291.0,
                4211.0,
                4136.0,
                3906.0,
                2153.0,
