{
    "AcquisitionMatrixPE": 88,
    "AcquisitionNumber": 1,
    "AcquisitionTime": "09:42:20.000000",
    "BodyPartExamined": "BRAIN",
    "CoilString": "48HAP",
    "ConversionSoftware": "dcm2niix",
    "ConversionSoftwareVersion": "v1.0.20190410  GCC6.3.0",
    "DeviceSerialNumber": "0000000319335MR2",
    "EchoTime": 0.03,
    "EffectiveEchoSpacing": 0.000564,
    "FlipAngle": 75,
    "ImageOrientationPatientDICOM": [
        1,
        0,
        0,
        0,
        1,
        0
    ],
    "ImageType": [
        "ORIGINAL",
        "PRIMARY",
        "OTHER"
    ],
    "ImagingFrequency": 127.753,
    "InPlanePhaseEncodingDirectionDICOM": "COL",
    "InstitutionName": "Iowa_MRRF",
    "IntendedFor": [
        "func/sub-10179_task-ThalHi_run-001_bold.nii.gz",
        "func/sub-10179_task-ThalHi_run-002_bold.nii.gz",
        "func/sub-10179_task-ThalHi_run-003_bold.nii.gz",
        "func/sub-10179_task-ThalHi_run-004_bold.nii.gz"
    ],
    "MRAcquisitionType": "2D",
    "MagneticFieldStrength": 3,
    "Manufacturer": "GE",
    "ManufacturersModelName": "SIGNA_Premier",
    "Modality": "MR",
    "PatientPosition": "HFS",
    "PercentPhaseFOV": 100,
    "PhaseEncodingDirection": "j-",
    "PhaseEncodingPolarityGE": "Unflipped",
    "PixelBandwidth": 3906.25,
    "ProcedureStepDescription": "HWANG_NET",
    "ProtocolName": "EPI_FM_pepolar=1",
    "ReconMatrixPE": 128,
    "RepetitionTime": 1.8,
    "SAR": 0.0898632,
    "ScanOptions": "SAT_GEMS_EDR_GEMS_MP_GEMS_EPI_GEMS_HYPERBAND_GEMS_FS",
    "ScanningSequence": "EP_GR",
    "SequenceVariant": "SS",
    "SeriesDescription": "EPI_FM_pepolar=1",
    "SeriesNumber": 5,
    "SliceThickness": 2.5,
    "SliceTiming": [
        0,
        0.9,
        0.075,
        0.975,
        0.15,
        1.05,
        0.225,
        1.125,
        0.3,
        1.2,
        0.375,
        1.275,
        0.45,
        1.35,
        0.525,
        1.425,
        0.6,
        1.5,
        0.675,
        1.575,
        0.75,
        1.725,
        0.825,
        1.65,
        0,
        0.9,
        0.075,
        0.975,
        0.15,
        1.05,
        0.225,
        1.125,
        0.3,
        1.2,
        0.375,
        1.275,
        0.45,
        1.35,
        0.525,
        1.425,
        0.6,
        1.5,
        0.675,
        1.575,
        0.75,
        1.725,
        0.825,
        1.65
    ],
    "SoftwareVersions": "28_LX_MR_Software_release:RX28.0_R05_2035.a",
    "SpacingBetweenSlices": 2.5,
    "StationName": "Iowa3T",
    "TotalReadoutTime": 0.071628,
    "TriggerDelayTime": 10650,
    "dcmmeta_affine": [
        [
            -1.7187999486923218,
            0.0,
            0.0,
            109.26700592041016
        ],
        [
            0.0,
            1.7187999486923218,
            0.0,
            -113.68939971923828
        ],
        [
            0.0,
            0.0,
            2.5,
            -31.572402954101562
        ],
        [
            0.0,
            0.0,
            0.0,
            1.0
        ]
    ],
    "dcmmeta_reorient_transform": [
        [
            0.0,
            -1.0,
            0.0,
            127.0
        ],
        [
            1.0,
            0.0,
            0.0,
            0.0
        ],
        [
            0.0,
            0.0,
            -1.0,
            47.0
        ],
        [
            0.0,
            0.0,
            0.0,
            1.0
        ]
    ],
    "dcmmeta_shape": [
        128,
        128,
        48,
        6
    ],
    "dcmmeta_slice_dim": 2,
    "dcmmeta_version": 0.6,
    "global": {
        "const": {
            "AcquisitionMatrix": [
                88,
                0,
                0,
                88
            ],
            "AcquisitionNumber": 1,
            "AcquisitionTime": "094220",
            "AnatomicRegionSequence": [
                {
                    "CodeMeaning": "Brain",
                    "CodeValue": "T-A0100",
                    "CodingSchemeDesignator": "SRT"
                }
            ],
            "AngioFlag": "N",
            "BeatRejectionFlag": "Y",
            "BitsAllocated": 16,
            "BitsStored": 16,
            "BodyPartExamined": "BRAIN",
            "CardiacNumberOfImages": 0,
            "Columns": 128,
            "ContentTime": "094220",
            "EchoNumbers": 1,
            "EchoTime": 30.0,
            "EchoTrainLength": 1,
            "FlipAngle": 75.0,
            "GroupLength_0X40_0X0": 98,
            "GroupLength_0X7FE0_0X0": 32780,
            "HeartRate": 0,
            "HighBit": 15,
            "ImageOrientationPatient": [
                1.0,
                -0.0,
                0.0,
                -0.0,
                1.0,
                0.0
            ],
            "ImageType": [
                "ORIGINAL",
                "PRIMARY",
                "OTHER"
            ],
            "ImagedNucleus": "1H",
            "ImagesInAcquisition": 288,
            "ImagingFrequency": 127.753409,
            "InPlanePhaseEncodingDirection": "COL",
            "MRAcquisitionType": "2D",
            "MagneticFieldStrength": 3.0,
            "Manufacturer": "GE MEDICAL SYSTEMS",
            "ManufacturerModelName": "SIGNA Premier",
            "Modality": "MR",
            "NumberOfAverages": 1.0,
            "NumberOfTemporalPositions": 6,
            "PercentPhaseFieldOfView": 100.0,
            "PercentSampling": 100.0,
            "PerformedLocation": "Iowa",
            "PerformedProcedureStepStartTime": "093216",
            "PhotometricInterpretation": "MONOCHROME2",
            "PixelBandwidth": 3906.25,
            "PixelRepresentation": 1,
            "PixelSpacing": [
                1.7188,
                1.7188
            ],
            "ProtocolName": "HWANG_NET_THALHI",
            "ReceiveCoilName": "48HAP",
            "ReconstructionDiameter": 220.0,
            "ReferencedPerformedProcedureStepSequence": [
                {
                    "ReferencedSOPClassUID": "1.2.840.10008.3.1.2.3.3",
                    "ReferencedSOPInstanceUID": "1.2.840.113619.6.475.336552098112030740910766712116506039706"
                }
            ],
            "RepetitionTime": 1800.0,
            "Rows": 128,
            "SAR": 0.0898632,
            "SamplesPerPixel": 1,
            "ScanOptions": [
                "SAT_GEMS",
                "EDR_GEMS",
                "MP_GEMS",
                "EPI_GEMS",
                "HYPERBAND_GEMS",
                "FS"
            ],
            "ScanningSequence": [
                "EP",
                "GR"
            ],
            "SequenceVariant": "SS",
            "SeriesDescription": "EPI FM pepolar=1",
            "SeriesNumber": 5,
            "SeriesTime": "094220",
            "SliceThickness": 2.5,
            "SmallestImagePixelValue": 0,
            "SoftwareVersions": [
                "28",
                "LX",
                "MR Software release:RX28.0_R05_2035.a"
            ],
            "SpacingBetweenSlices": 2.5,
            "SpecificCharacterSet": "ISO_IR 100",
            "StackID": "1",
            "StudyID": "2831",
            "StudyTime": "093223",
            "TriggerWindow": 0,
            "VariableFlipAngleFlag": "N"
        },
        "slices": {
            "InstanceNumber": [
                1,
                2,
                3,
                4,
                5,
                6,
                7,
                8,
                9,
                10,
                11,
                12,
                13,
                14,
                15,
                16,
                17,
                18,
                19,
                20,
                21,
                22,
                23,
                24,
                25,
                26,
                27,
                28,
                29,
                30,
                31,
                32,
                33,
                34,
                35,
                36,
                37,
                38,
                39,
                40,
                41,
                42,
                43,
                44,
                45,
                46,
                47,
                48,
                49,
                50,
                51,
                52,
                53,
                54,
                55,
                56,
                57,
                58,
                59,
                60,
                61,
                62,
                63,
                64,
                65,
                66,
                67,
                68,
                69,
                70,
                71,
                72,
                73,
                74,
                75,
                76,
                77,
                78,
                79,
                80,
                81,
                82,
                83,
                84,
                85,
                86,
                87,
                88,
                89,
                90,
                91,
                92,
                93,
                94,
                95,
                96,
                97,
                98,
                99,
                100,
                101,
                102,
                103,
                104,
                105,
                106,
                107,
                108,
                109,
                110,
                111,
                112,
                113,
                114,
                115,
                116,
                117,
                118,
                119,
                120,
                121,
                122,
                123,
                124,
                125,
                126,
                127,
                128,
                129,
                130,
                131,
                132,
                133,
                134,
                135,
                136,
                137,
                138,
                139,
                140,
                141,
                142,
                143,
                144,
                145,
                146,
                147,
                148,
                149,
                150,
                151,
                152,
                153,
                154,
                155,
                156,
                157,
                158,
                159,
                160,
                161,
                162,
                163,
                164,
                165,
                166,
                167,
                168,
                169,
                170,
                171,
                172,
                173,
                174,
                175,
                176,
                177,
                178,
                179,
                180,
                181,
                182,
                183,
                184,
                185,
                186,
                187,
                188,
                189,
                190,
                191,
                192,
                193,
                194,
                195,
                196,
                197,
                198,
                199,
                200,
                201,
                202,
                203,
                204,
                205,
                206,
                207,
                208,
                209,
                210,
                211,
                212,
                213,
                214,
                215,
                216,
                217,
                218,
                219,
                220,
                221,
                222,
                223,
                224,
                225,
                226,
                227,
                228,
                229,
                230,
                231,
                232,
                233,
                234,
                235,
                236,
                237,
                238,
                239,
                240,
                241,
                242,
                243,
                244,
                245,
                246,
                247,
                248,
                249,
                250,
                251,
                252,
                253,
                254,
                255,
                256,
                257,
                258,
                259,
                260,
                261,
                262,
                263,
                264,
                265,
                266,
                267,
                268,
                269,
                270,
                271,
                272,
                273,
                274,
                275,
                276,
                277,
                278,
                279,
                280,
                281,
                282,
                283,
                284,
                285,
                286,
                287,
                288
            ],
            "LargestImagePixelValue": [
                5848,
                5046,
                5952,
                6392,
                6584,
                5349,
                5661,
                5046,
                5624,
                4707,
                5637,
                5180,
                5475,
                5024,
                5561,
                5829,
                6278,
                5725,
                6401,
                6779,
                7616,
                7195,
                6838,
                7137,
                7386,
                6855,
                7479,
                8258,
                7741,
                6919,
                8218,
                7539,
                9039,
                8943,
                8118,
                8913,
                9676,
                9707,
                9467,
                9563,
                10152,
                9130,
                10663,
                11600,
                10941,
                10154,
                8584,
                2938,
                6339,
                3994,
                4235,
                4931,
                4844,
                4113,
                4341,
                3893,
                4352,
                3866,
                4588,
                4346,
                4302,
                4271,
                4456,
                4613,
                4819,
                4963,
                5120,
                5442,
                5603,
                5653,
                5471,
                6144,
                5643,
                5712,
                5630,
                7080,
                6377,
                5948,
                6134,
                6509,
                7744,
                7731,
                6589,
                7270,
                7928,
                8047,
                7799,
                7931,
                8290,
                7819,
                9025,
                9925,
                9369,
                8616,
                7548,
                2484,
                5437,
                3647,
                4178,
                4836,
                4462,
                3845,
                3904,
                3805,
                4180,
                3783,
                4026,
                4541,
                4105,
                4131,
                4340,
                4651,
                4648,
                4775,
                4886,
                5199,
                5438,
                5549,
                5268,
                5772,
                5347,
                5621,
                5338,
                6695,
                6004,
                5554,
                5818,
                6256,
                7232,
                6781,
                6134,
                6924,
                7351,
                7517,
                7283,
                7464,
                7759,
                7332,
                8456,
                9214,
                8562,
                8050,
                7012,
                2349,
                4701,
                3567,
                4097,
                4505,
                4385,
                3846,
                3908,
                3797,
                4197,
                3723,
                3949,
                4443,
                4016,
                4172,
                4313,
                4605,
                4570,
                4844,
                4863,
                5115,
                5334,
                5488,
                5254,
                5610,
                5257,
                5437,
                5302,
                6622,
                5861,
                5496,
                5713,
                6290,
                7161,
                6668,
                6003,
                6767,
                7193,
                7377,
                7015,
                7206,
                7504,
                7172,
                8188,
                9013,
                8318,
                7915,
                6819,
                2283,
                4055,
                3874,
                4088,
                4707,
                4301,
                3785,
                3916,
                3560,
                4117,
                3733,
                3926,
                4254,
                4045,
                4163,
                4345,
                4604,
                4557,
                4748,
                4773,
                5100,
                5415,
                5500,
                5124,
                5526,
                5275,
                5507,
                5192,
                6347,
                5757,
                5503,
                5637,
                6112,
                7037,
                6948,
                5907,
                6787,
                7151,
                7308,
                6992,
                7217,
                7444,
                7102,
                8113,
                8914,
                8230,
                7755,
                6739,
                2224,
                3907,
                3699,
                3971,
                4538,
                4457,
                3834,
                3909,
                3670,
                4180,
                3758,
                4005,
                4267,
                4088,
                4188,
                4307,
                4625,
                4541,
                4828,
                4791,
                5123,
                5367,
                5420,
                5215,
                5488,
                5193,
                5472,
                5313,
                6422,
                5752,
                5421,
                5603,
                6157,
                7024,
                6910,
                5905,
                6693,
                7220,
                7282,
                6920,
                7156,
                7444,
                7112,
                8025,
                8913,
                8083,
                7744,
                6674,
                2210
            ],
            "TriggerTime": [
                75.0,
                975.0,
                150.0,
                1050.0,
                225.0,
                1125.0,
                300.0,
                1200.0,
                375.0,
                1275.0,
                450.0,
                1350.0,
                525.0,
                1425.0,
                600.0,
                1500.0,
                675.0,
                1575.0,
                750.0,
                1650.0,
                825.0,
                1800.0,
                900.0,
                1725.0,
                75.0,
                975.0,
                150.0,
                1050.0,
                225.0,
                1125.0,
                300.0,
                1200.0,
                375.0,
                1275.0,
                450.0,
                1350.0,
                525.0,
                1425.0,
                600.0,
                1500.0,
                675.0,
                1575.0,
                750.0,
                1650.0,
                825.0,
                1800.0,
                900.0,
                1725.0,
                1875.0,
                2775.0,
                1950.0,
                2850.0,
                2025.0,
                2925.0,
                2100.0,
                3000.0,
                2175.0,
                3075.0,
                2250.0,
                3150.0,
                2325.0,
                3225.0,
                2400.0,
                3300.0,
                2475.0,
                3375.0,
                2550.0,
                3450.0,
                2625.0,
                3600.0,
                2700.0,
                3525.0,
                1875.0,
                2775.0,
                1950.0,
                2850.0,
                2025.0,
                2925.0,
                2100.0,
                3000.0,
                2175.0,
                3075.0,
                2250.0,
                3150.0,
                2325.0,
                3225.0,
                2400.0,
                3300.0,
                2475.0,
                3375.0,
                2550.0,
                3450.0,
                2625.0,
                3600.0,
                2700.0,
                3525.0,
                3675.0,
                4575.0,
                3750.0,
                4650.0,
                3825.0,
                4725.0,
                3900.0,
                4800.0,
                3975.0,
                4875.0,
                4050.0,
                4950.0,
                4125.0,
                5025.0,
                4200.0,
                5100.0,
                4275.0,
                5175.0,
                4350.0,
                5250.0,
                4425.0,
                5400.0,
                4500.0,
                5325.0,
                3675.0,
                4575.0,
                3750.0,
                4650.0,
                3825.0,
                4725.0,
                3900.0,
                4800.0,
                3975.0,
                4875.0,
                4050.0,
                4950.0,
                4125.0,
                5025.0,
                4200.0,
                5100.0,
                4275.0,
                5175.0,
                4350.0,
                5250.0,
                4425.0,
                5400.0,
                4500.0,
                5325.0,
                5475.0,
                6375.0,
                5550.0,
                6450.0,
                5625.0,
                6525.0,
                5700.0,
                6600.0,
                5775.0,
                6675.0,
                5850.0,
                6750.0,
                5925.0,
                6825.0,
                6000.0,
                6900.0,
                6075.0,
                6975.0,
                6150.0,
                7050.0,
                6225.0,
                7200.0,
                6300.0,
                7125.0,
                5475.0,
                6375.0,
                5550.0,
                6450.0,
                5625.0,
                6525.0,
                5700.0,
                6600.0,
                5775.0,
                6675.0,
                5850.0,
                6750.0,
                5925.0,
                6825.0,
                6000.0,
                6900.0,
                6075.0,
                6975.0,
                6150.0,
                7050.0,
                6225.0,
                7200.0,
                6300.0,
                7125.0,
                7275.0,
                8175.0,
                7350.0,
                8250.0,
                7425.0,
                8325.0,
                7500.0,
                8400.0,
                7575.0,
                8475.0,
                7650.0,
                8550.0,
                7725.0,
                8625.0,
                7800.0,
                8700.0,
                7875.0,
                8775.0,
                7950.0,
                8850.0,
                8025.0,
                9000.0,
                8100.0,
                8925.0,
                7275.0,
                8175.0,
                7350.0,
                8250.0,
                7425.0,
                8325.0,
                7500.0,
                8400.0,
                7575.0,
                8475.0,
                7650.0,
                8550.0,
                7725.0,
                8625.0,
                7800.0,
                8700.0,
                7875.0,
                8775.0,
                7950.0,
                8850.0,
                8025.0,
                9000.0,
                8100.0,
                8925.0,
                9075.0,
                9975.0,
                9150.0,
                10050.0,
                9225.0,
                10125.0,
                9300.0,
                10200.0,
                9375.0,
                10275.0,
                9450.0,
                10350.0,
                9525.0,
                10425.0,
                9600.0,
                10500.0,
                9675.0,
                10575.0,
                9750.0,
                10650.0,
                9825.0,
                10800.0,
                9900.0,
                10725.0,
                9075.0,
                9975.0,
                9150.0,
                10050.0,
                9225.0,
                10125.0,
                9300.0,
                10200.0,
                9375.0,
                10275.0,
                9450.0,
                10350.0,
                9525.0,
                10425.0,
                9600.0,
                10500.0,
                9675.0,
                10575.0,
                9750.0,
                10650.0,
                9825.0,
                10800.0,
                9900.0,
                10725.0
            ],
            "WindowCenter": [
                3508.0,
                3027.0,
                3571.0,
                3835.0,
                3950.0,
                3209.0,
                3396.0,
                3027.0,
                3374.0,
                2824.0,
                3382.0,
                3108.0,
                3285.0,
                3014.0,
                3336.0,
                3497.0,
                3766.0,
                3435.0,
                3840.0,
                4067.0,
                4569.0,
                4317.0,
                4102.0,
                4282.0,
                4431.0,
                4113.0,
                4487.0,
                4954.0,
                4644.0,
                4151.0,
                4930.0,
                4523.0,
                5423.0,
                5365.0,
                4870.0,
                5347.0,
                5805.0,
                5824.0,
                5680.0,
                5737.0,
                6091.0,
                5478.0,
                6397.0,
                6960.0,
                6564.0,
                6092.0,
                5150.0,
                1762.0,
                3803.0,
                2396.0,
                2541.0,
                2958.0,
                2906.0,
                2467.0,
                2604.0,
                2335.0,
                2611.0,
                2319.0,
                2752.0,
                2607.0,
                2581.0,
                2562.0,
                2673.0,
                2767.0,
                2891.0,
                2977.0,
                3072.0,
                3265.0,
                3361.0,
                3391.0,
                3282.0,
                3686.0,
                3385.0,
                3427.0,
                3378.0,
                4248.0,
                3826.0,
                3568.0,
                3680.0,
                3905.0,
                4646.0,
                4638.0,
                3953.0,
                4362.0,
                4756.0,
                4828.0,
                4679.0,
                4758.0,
                4974.0,
                4691.0,
                5415.0,
                5955.0,
                5621.0,
                5169.0,
                4528.0,
                1490.0,
                3262.0,
                2188.0,
                2506.0,
                2901.0,
                2677.0,
                2307.0,
                2342.0,
                2283.0,
                2508.0,
                2269.0,
                2415.0,
                2724.0,
                2463.0,
                2478.0,
                2604.0,
                2790.0,
                2788.0,
                2865.0,
                2931.0,
                3119.0,
                3262.0,
                3329.0,
                3160.0,
                3463.0,
                3208.0,
                3372.0,
                3202.0,
                4017.0,
                3602.0,
                3332.0,
                3490.0,
                3753.0,
                4339.0,
                4068.0,
                3680.0,
                4154.0,
                4410.0,
                4510.0,
                4369.0,
                4478.0,
                4655.0,
                4399.0,
                5073.0,
