{
    "AcquisitionMatrixPE": 88,
    "AcquisitionNumber": 1,
    "AcquisitionTime": "09:35:50.000000",
    "BodyPartExamined": "BRAIN",
    "CoilString": "48HAP",
    "ConversionSoftware": "dcm2niix",
    "ConversionSoftwareVersion": "v1.0.20190410  GCC6.3.0",
    "DeviceSerialNumber": "0000000319335MR2",
    "EchoTime": 0.03,
    "EffectiveEchoSpacing": 0.000564,
    "FlipAngle": 75,
    "ImageOrientationPatientDICOM": [
        1,
        0,
        0,
        0,
        0.986735,
        -0.16234
    ],
    "ImageType": [
        "ORIGINAL",
        "PRIMARY",
        "OTHER"
    ],
    "ImagingFrequency": 127.754,
    "InPlanePhaseEncodingDirectionDICOM": "COL",
    "InstitutionName": "Iowa_MRRF",
    "IntendedFor": [
        "func/sub-10176_task-ThalHi_run-001_bold.nii.gz",
        "func/sub-10176_task-ThalHi_run-002_bold.nii.gz",
        "func/sub-10176_task-ThalHi_run-003_bold.nii.gz",
        "func/sub-10176_task-ThalHi_run-004_bold.nii.gz"
    ],
    "MRAcquisitionType": "2D",
    "MagneticFieldStrength": 3,
    "Manufacturer": "GE",
    "ManufacturersModelName": "SIGNA_Premier",
    "Modality": "MR",
    "PatientPosition": "HFS",
    "PercentPhaseFOV": 100,
    "PhaseEncodingDirection": "j",
    "PhaseEncodingPolarityGE": "Flipped",
    "PixelBandwidth": 3906.25,
    "ProcedureStepDescription": "HWANG_NET",
    "ProtocolName": "EPI_FM_pepolar=0",
    "ReconMatrixPE": 128,
    "RepetitionTime": 1.8,
    "SAR": 0.0702132,
    "ScanOptions": "SAT_GEMS_EDR_GEMS_MP_GEMS_EPI_GEMS_HYPERBAND_GEMS_FS",
    "ScanningSequence": "EP_GR",
    "SequenceVariant": "SS",
    "SeriesDescription": "EPI_FM_pepolar=0",
    "SeriesNumber": 4,
    "SliceThickness": 2.5,
    "SliceTiming": [
        0,
        0.9,
        0.075,
        0.975,
        0.15,
        1.05,
        0.225,
        1.125,
        0.3,
        1.2,
        0.375,
        1.275,
        0.45,
        1.35,
        0.525,
        1.425,
        0.6,
        1.5,
        0.675,
        1.575,
        0.75,
        1.725,
        0.825,
        1.65,
        0,
        0.9,
        0.075,
        0.975,
        0.15,
        1.05,
        0.225,
        1.125,
        0.3,
        1.2,
        0.375,
        1.275,
        0.45,
        1.35,
        0.525,
        1.425,
        0.6,
        1.5,
        0.675,
        1.575,
        0.75,
        1.725,
        0.825,
        1.65
    ],
    "SoftwareVersions": "28_LX_MR_Software_release:RX28.0_R05_2035.a",
    "SpacingBetweenSlices": 2.5,
    "StationName": "Iowa3T",
    "TotalReadoutTime": 0.071628,
    "TriggerDelayTime": 10650,
    "dcmmeta_affine": [
        [
            -1.7187999486923218,
            0.0,
            0.0,
            108.34646606445312
        ],
        [
            0.0,
            1.6959997415542603,
            -0.405853271484375,
            -111.12954711914062
        ],
        [
            0.0,
            0.2790306806564331,
            2.4668350219726562,
            -49.91834259033203
        ],
        [
            0.0,
            0.0,
            0.0,
            1.0
        ]
    ],
    "dcmmeta_reorient_transform": [
        [
            0.0,
            -1.0,
            0.0,
            127.0
        ],
        [
            1.0,
            0.0,
            0.0,
            0.0
        ],
        [
            0.0,
            0.0,
            -1.0,
            47.0
        ],
        [
            0.0,
            0.0,
            0.0,
            1.0
        ]
    ],
    "dcmmeta_shape": [
        128,
        128,
        48,
        6
    ],
    "dcmmeta_slice_dim": 2,
    "dcmmeta_version": 0.6,
    "global": {
        "const": {
            "AcquisitionMatrix": [
                88,
                0,
                0,
                88
            ],
            "AcquisitionNumber": 1,
            "AcquisitionTime": "093550",
            "AnatomicRegionSequence": [
                {
                    "CodeMeaning": "Brain",
                    "CodeValue": "T-A0100",
                    "CodingSchemeDesignator": "SRT"
                }
            ],
            "AngioFlag": "N",
            "BeatRejectionFlag": "Y",
            "BitsAllocated": 16,
            "BitsStored": 16,
            "BodyPartExamined": "BRAIN",
            "CardiacNumberOfImages": 0,
            "Columns": 128,
            "ContentTime": "093550",
            "EchoNumbers": 1,
            "EchoTime": 30.0,
            "EchoTrainLength": 1,
            "FlipAngle": 75.0,
            "GroupLength_0X40_0X0": 98,
            "GroupLength_0X7FE0_0X0": 32780,
            "HeartRate": 0,
            "HighBit": 15,
            "ImageType": [
                "ORIGINAL",
                "PRIMARY",
                "OTHER"
            ],
            "ImagedNucleus": "1H",
            "ImagesInAcquisition": 288,
            "ImagingFrequency": 127.753611,
            "InPlanePhaseEncodingDirection": "COL",
            "MRAcquisitionType": "2D",
            "MagneticFieldStrength": 3.0,
            "Manufacturer": "GE MEDICAL SYSTEMS",
            "ManufacturerModelName": "SIGNA Premier",
            "Modality": "MR",
            "NumberOfAverages": 1.0,
            "NumberOfTemporalPositions": 6,
            "PercentPhaseFieldOfView": 100.0,
            "PercentSampling": 100.0,
            "PerformedLocation": "Iowa",
            "PerformedProcedureStepStartTime": "092804",
            "PhotometricInterpretation": "MONOCHROME2",
            "PixelBandwidth": 3906.25,
            "PixelRepresentation": 1,
            "PixelSpacing": [
                1.7188,
                1.7188
            ],
            "ProtocolName": "HWANG_NET_THALHI",
            "ReceiveCoilName": "48HAP",
            "ReconstructionDiameter": 220.0,
            "ReferencedPerformedProcedureStepSequence": [
                {
                    "ReferencedSOPClassUID": "1.2.840.10008.3.1.2.3.3",
                    "ReferencedSOPInstanceUID": "1.2.840.113619.6.475.258849513765442702597783365352746555223"
                }
            ],
            "RepetitionTime": 1800.0,
            "Rows": 128,
            "SAR": 0.0702132,
            "SamplesPerPixel": 1,
            "ScanOptions": [
                "SAT_GEMS",
                "EDR_GEMS",
                "MP_GEMS",
                "EPI_GEMS",
                "HYPERBAND_GEMS",
                "FS"
            ],
            "ScanningSequence": [
                "EP",
                "GR"
            ],
            "SequenceVariant": "SS",
            "SeriesDescription": "EPI FM pepolar=0",
            "SeriesNumber": 4,
            "SeriesTime": "093550",
            "SliceThickness": 2.5,
            "SmallestImagePixelValue": 0,
            "SoftwareVersions": [
                "28",
                "LX",
                "MR Software release:RX28.0_R05_2035.a"
            ],
            "SpacingBetweenSlices": 2.5,
            "SpecificCharacterSet": "ISO_IR 100",
            "StackID": "1",
            "StudyID": "2695",
            "StudyTime": "092811",
            "TriggerWindow": 0,
            "VariableFlipAngleFlag": "N"
        },
        "slices": {
            "InstanceNumber": [
                1,
                2,
                3,
                4,
                5,
                6,
                7,
                8,
                9,
                10,
                11,
                12,
                13,
                14,
                15,
                16,
                17,
                18,
                19,
                20,
                21,
                22,
                23,
                24,
                25,
                26,
                27,
                28,
                29,
                30,
                31,
                32,
                33,
                34,
                35,
                36,
                37,
                38,
                39,
                40,
                41,
                42,
                43,
                44,
                45,
                46,
                47,
                48,
                49,
                50,
                51,
                52,
                53,
                54,
                55,
                56,
                57,
                58,
                59,
                60,
                61,
                62,
                63,
                64,
                65,
                66,
                67,
                68,
                69,
                70,
                71,
                72,
                73,
                74,
                75,
                76,
                77,
                78,
                79,
                80,
                81,
                82,
                83,
                84,
                85,
                86,
                87,
                88,
                89,
                90,
                91,
                92,
                93,
                94,
                95,
                96,
                97,
                98,
                99,
                100,
                101,
                102,
                103,
                104,
                105,
                106,
                107,
                108,
                109,
                110,
                111,
                112,
                113,
                114,
                115,
                116,
                117,
                118,
                119,
                120,
                121,
                122,
                123,
                124,
                125,
                126,
                127,
                128,
                129,
                130,
                131,
                132,
                133,
                134,
                135,
                136,
                137,
                138,
                139,
                140,
                141,
                142,
                143,
                144,
                145,
                146,
                147,
                148,
                149,
                150,
                151,
                152,
                153,
                154,
                155,
                156,
                157,
                158,
                159,
                160,
                161,
                162,
                163,
                164,
                165,
                166,
                167,
                168,
                169,
                170,
                171,
                172,
                173,
                174,
                175,
                176,
                177,
                178,
                179,
                180,
                181,
                182,
                183,
                184,
                185,
                186,
                187,
                188,
                189,
                190,
                191,
                192,
                193,
                194,
                195,
                196,
                197,
                198,
                199,
                200,
                201,
                202,
                203,
                204,
                205,
                206,
                207,
                208,
                209,
                210,
                211,
                212,
                213,
                214,
                215,
                216,
                217,
                218,
                219,
                220,
                221,
                222,
                223,
                224,
                225,
                226,
                227,
                228,
                229,
                230,
                231,
                232,
                233,
                234,
                235,
                236,
                237,
                238,
                239,
                240,
                241,
                242,
                243,
                244,
                245,
                246,
                247,
                248,
                249,
                250,
                251,
                252,
                253,
                254,
                255,
                256,
                257,
                258,
                259,
                260,
                261,
                262,
                263,
                264,
                265,
                266,
                267,
                268,
                269,
                270,
                271,
                272,
                273,
                274,
                275,
                276,
                277,
                278,
                279,
                280,
                281,
                282,
                283,
                284,
                285,
                286,
                287,
                288
            ],
            "LargestImagePixelValue": [
                6252,
                5439,
                5469,
                5391,
                5800,
                6541,
                7728,
                7608,
                8490,
                7137,
                6589,
                7009,
                6932,
                7271,
                7217,
                6760,
                7462,
                6704,
                7351,
                7085,
                8240,
                8645,
                8663,
                9447,
                9527,
                8575,
                10141,
                9922,
                10841,
                9294,
                9978,
                9491,
                10542,
                10969,
                11937,
                10438,
                11322,
                10864,
                12369,
                11472,
                11912,
                11900,
                13317,
                12664,
                13252,
                11940,
                12934,
                12282,
                5644,
                4635,
                4302,
                3981,
                4432,
                5315,
                6306,
                6244,
                7064,
                5918,
                5092,
                5422,
                5630,
                5909,
                5622,
                5512,
                5964,
                5464,
                5834,
                6146,
                6911,
                7416,
                7285,
                8101,
                7342,
                7221,
                8346,
                8515,
                9450,
                8015,
                8403,
                8186,
                9043,
                9502,
                10199,
                9399,
                9165,
                9209,
                10110,
                9439,
                9632,
                9862,
                10888,
                10282,
                10869,
                9986,
                10725,
                10408,
                5227,
                4186,
                3577,
                3718,
                3850,
                3914,
                5715,
                5530,
                6100,
                4912,
                4818,
                4894,
                5134,
                5485,
                5083,
                5142,
                5509,
                5151,
                5646,
                6077,
                6365,
                6944,
                6780,
                7606,
                6863,
                6708,
                7910,
                8085,
                8723,
                7433,
                7823,
                7601,
                8307,
                8908,
                9537,
                8892,
                8518,
                8666,
                8973,
                8710,
                8916,
                9247,
                10023,
                9731,
                9994,
                9353,
                9970,
                9710,
                5628,
                4330,
                3692,
                3884,
                3859,
                4400,
                4144,
                5434,
                5487,
                5428,
                4814,
                4968,
                5011,
                5357,
                5176,
                5056,
                5357,
                5218,
                5635,
                6043,
                6349,
                6189,
                6616,
                7429,
                6680,
                6559,
                7466,
                7764,
                8487,
                7272,
                7501,
                7447,
                8125,
                8683,
                9322,
                8620,
                8210,
                8495,
                9096,
                8581,
                8708,
                8975,
                9775,
                9392,
                9732,
                9142,
                9683,
                9469,
                4930,
                4816,
                3742,
                3815,
                4064,
                4236,
                3993,
                5708,
                4950,
                5629,
                4761,
                4857,
                5001,
                5285,
                5123,
                5035,
                5299,
                5135,
                5740,
                5847,
                6196,
                6704,
                6570,
                7332,
                6573,
                6456,
                7497,
                7617,
                8357,
                7151,
                7463,
                7347,
                8015,
                8590,
                9142,
                8489,
                8146,
                8371,
                9010,
                8566,
                8694,
                8913,
                9682,
                9384,
                9588,
                9029,
                9133,
                9436,
                4185,
                5124,
                3648,
                3707,
                3896,
                3921,
                5262,
                4781,
                5426,
                5012,
                4798,
                4822,
                4893,
                5248,
                5038,
                4990,
                5213,
                5339,
                5720,
                5959,
                6202,
                6602,
                6611,
                7278,
                6744,
                6464,
                7412,
                7739,
                8298,
                7045,
                7453,
                7369,
                7904,
                8463,
                9062,
                8435,
                8108,
                8430,
                9049,
                8589,
                8572,
                8933,
                9649,
                9305,
                9537,
                8958,
                9070,
                9329
            ],
            "TriggerTime": [
                75.0,
                975.0,
                150.0,
                1050.0,
                225.0,
                1125.0,
                300.0,
                1200.0,
                375.0,
                1275.0,
                450.0,
                1350.0,
                525.0,
                1425.0,
                600.0,
                1500.0,
                675.0,
                1575.0,
                750.0,
                1650.0,
                825.0,
                1800.0,
                900.0,
                1725.0,
                75.0,
                975.0,
                150.0,
                1050.0,
                225.0,
                1125.0,
                300.0,
                1200.0,
                375.0,
                1275.0,
                450.0,
                1350.0,
                525.0,
                1425.0,
                600.0,
                1500.0,
                675.0,
                1575.0,
                750.0,
                1650.0,
                825.0,
                1800.0,
                900.0,
                1725.0,
                1875.0,
                2775.0,
                1950.0,
                2850.0,
                2025.0,
                2925.0,
                2100.0,
                3000.0,
                2175.0,
                3075.0,
                2250.0,
                3150.0,
                2325.0,
                3225.0,
                2400.0,
                3300.0,
                2475.0,
                3375.0,
                2550.0,
                3450.0,
                2625.0,
                3600.0,
                2700.0,
                3525.0,
                1875.0,
                2775.0,
                1950.0,
                2850.0,
                2025.0,
                2925.0,
                2100.0,
                3000.0,
                2175.0,
                3075.0,
                2250.0,
                3150.0,
                2325.0,
                3225.0,
                2400.0,
                3300.0,
                2475.0,
                3375.0,
                2550.0,
                3450.0,
                2625.0,
                3600.0,
                2700.0,
                3525.0,
                3675.0,
                4575.0,
                3750.0,
                4650.0,
                3825.0,
                4725.0,
                3900.0,
                4800.0,
                3975.0,
                4875.0,
                4050.0,
                4950.0,
                4125.0,
                5025.0,
                4200.0,
                5100.0,
                4275.0,
                5175.0,
                4350.0,
                5250.0,
                4425.0,
                5400.0,
                4500.0,
                5325.0,
                3675.0,
                4575.0,
                3750.0,
                4650.0,
                3825.0,
                4725.0,
                3900.0,
                4800.0,
                3975.0,
                4875.0,
                4050.0,
                4950.0,
                4125.0,
                5025.0,
                4200.0,
                5100.0,
                4275.0,
                5175.0,
                4350.0,
                5250.0,
                4425.0,
                5400.0,
                4500.0,
                5325.0,
                5475.0,
                6375.0,
                5550.0,
                6450.0,
                5625.0,
                6525.0,
                5700.0,
                6600.0,
                5775.0,
                6675.0,
                5850.0,
                6750.0,
                5925.0,
                6825.0,
                6000.0,
                6900.0,
                6075.0,
                6975.0,
                6150.0,
                7050.0,
                6225.0,
                7200.0,
                6300.0,
                7125.0,
                5475.0,
                6375.0,
                5550.0,
                6450.0,
                5625.0,
                6525.0,
                5700.0,
                6600.0,
                5775.0,
                6675.0,
                5850.0,
                6750.0,
                5925.0,
                6825.0,
                6000.0,
                6900.0,
                6075.0,
                6975.0,
                6150.0,
                7050.0,
                6225.0,
                7200.0,
                6300.0,
                7125.0,
                7275.0,
                8175.0,
                7350.0,
                8250.0,
                7425.0,
                8325.0,
                7500.0,
                8400.0,
                7575.0,
                8475.0,
                7650.0,
                8550.0,
                7725.0,
                8625.0,
                7800.0,
                8700.0,
                7875.0,
                8775.0,
                7950.0,
                8850.0,
                8025.0,
                9000.0,
                8100.0,
                8925.0,
                7275.0,
                8175.0,
                7350.0,
                8250.0,
                7425.0,
                8325.0,
                7500.0,
                8400.0,
                7575.0,
                8475.0,
                7650.0,
                8550.0,
                7725.0,
                8625.0,
                7800.0,
                8700.0,
                7875.0,
                8775.0,
                7950.0,
                8850.0,
                8025.0,
                9000.0,
                8100.0,
                8925.0,
                9075.0,
                9975.0,
                9150.0,
                10050.0,
                9225.0,
                10125.0,
                9300.0,
                10200.0,
                9375.0,
                10275.0,
                9450.0,
                10350.0,
                9525.0,
                10425.0,
                9600.0,
                10500.0,
                9675.0,
                10575.0,
                9750.0,
                10650.0,
                9825.0,
                10800.0,
                9900.0,
                10725.0,
                9075.0,
                9975.0,
                9150.0,
                10050.0,
                9225.0,
                10125.0,
                9300.0,
                10200.0,
                9375.0,
                10275.0,
                9450.0,
                10350.0,
                9525.0,
                10425.0,
                9600.0,
                10500.0,
                9675.0,
                10575.0,
                9750.0,
                10650.0,
                9825.0,
                10800.0,
                9900.0,
                10725.0
            ],
            "WindowCenter": [
                3751.0,
                3263.0,
                3281.0,
                3234.0,
                3480.0,
                3924.0,
                4636.0,
                4564.0,
                5094.0,
                4282.0,
                3953.0,
                4205.0,
                4159.0,
                4362.0,
                4330.0,
                4056.0,
                4477.0,
                4022.0,
                4410.0,
                4251.0,
                4944.0,
                5187.0,
                5197.0,
                5668.0,
                5716.0,
                5145.0,
                6084.0,
                5953.0,
                6504.0,
                5576.0,
                5986.0,
                5694.0,
                6325.0,
                6581.0,
                7162.0,
                6262.0,
                6793.0,
                6518.0,
                7421.0,
                6883.0,
                7147.0,
                7140.0,
                7990.0,
                7598.0,
                7951.0,
                7164.0,
                7760.0,
                7369.0,
                3386.0,
                2781.0,
                2581.0,
                2388.0,
                2659.0,
                3189.0,
                3783.0,
                3746.0,
                4238.0,
                3550.0,
                3055.0,
                3253.0,
                3378.0,
                3545.0,
                3373.0,
                3307.0,
                3578.0,
                3278.0,
                3500.0,
                3687.0,
                4146.0,
                4449.0,
                4371.0,
                4860.0,
                4405.0,
                4332.0,
                5007.0,
                5109.0,
                5670.0,
                4809.0,
                5041.0,
                4911.0,
                5425.0,
                5701.0,
                6119.0,
                5639.0,
                5499.0,
                5525.0,
                6066.0,
                5663.0,
                5779.0,
                5917.0,
                6532.0,
                6169.0,
                6521.0,
                5991.0,
                6435.0,
                6244.0,
                3136.0,
                2511.0,
                2146.0,
                2230.0,
                2310.0,
                2348.0,
                3429.0,
                3318.0,
                3660.0,
                2947.0,
                2890.0,
                2936.0,
                3080.0,
                3291.0,
                3049.0,
                3085.0,
                3305.0,
                3090.0,
                3387.0,
                3646.0,
                3819.0,
                4166.0,
                4068.0,
                4563.0,
                4117.0,
                4024.0,
                4746.0,
                4851.0,
                5233.0,
                4459.0,
                4693.0,
                4560.0,
                4984.0,
                5344.0,
                5722.0,
                5335.0,
                5110.0,
                5199.0,
                5383.0,
                5226.0,
                5349.0,
                5548.0,
                6013.0,
                5838.0,
                5996.0,
                5611.0,
                5982.0,
                5826.0,
