{
    "AcquisitionMatrixPE": 88,
    "AcquisitionNumber": 1,
    "AcquisitionTime": "08:07:16.000000",
    "BodyPartExamined": "BRAIN",
    "CoilString": "48HAP",
    "ConversionSoftware": "dcm2niix",
    "ConversionSoftwareVersion": "v1.0.20190410  GCC6.3.0",
    "DeviceSerialNumber": "0000000319335MR2",
    "EchoTime": 0.03,
    "EffectiveEchoSpacing": 0.000564,
    "FlipAngle": 75,
    "ImageOrientationPatientDICOM": [
        1,
        0,
        0,
        0,
        0.99195,
        0.126632
    ],
    "ImageType": [
        "ORIGINAL",
        "PRIMARY",
        "OTHER"
    ],
    "ImagingFrequency": 127.753,
    "InPlanePhaseEncodingDirectionDICOM": "COL",
    "InstitutionName": "Iowa_MRRF",
    "IntendedFor": [
        "func/sub-10034_task-ThalHi_run-001_bold.nii.gz",
        "func/sub-10034_task-ThalHi_run-002_bold.nii.gz",
        "func/sub-10034_task-ThalHi_run-003_bold.nii.gz",
        "func/sub-10034_task-ThalHi_run-004_bold.nii.gz"
    ],
    "MRAcquisitionType": "2D",
    "MagneticFieldStrength": 3,
    "Manufacturer": "GE",
    "ManufacturersModelName": "SIGNA_Premier",
    "Modality": "MR",
    "PatientPosition": "HFS",
    "PercentPhaseFOV": 100,
    "PhaseEncodingDirection": "j",
    "PhaseEncodingPolarityGE": "Flipped",
    "PixelBandwidth": 3906.25,
    "ProcedureStepDescription": "HWANG_NET",
    "ProtocolName": "EPI_FM_pepolar=0",
    "ReconMatrixPE": 128,
    "RepetitionTime": 1.8,
    "SAR": 0.0749843,
    "ScanOptions": "SAT_GEMS_EDR_GEMS_MP_GEMS_EPI_GEMS_HYPERBAND_GEMS_FS",
    "ScanningSequence": "EP_GR",
    "SequenceVariant": "SS",
    "SeriesDescription": "EPI_FM_pepolar=0",
    "SeriesNumber": 4,
    "SliceThickness": 2.5,
    "SliceTiming": [
        0,
        0.9,
        0.075,
        0.975,
        0.15,
        1.05,
        0.225,
        1.125,
        0.3,
        1.2,
        0.375,
        1.275,
        0.45,
        1.35,
        0.525,
        1.425,
        0.6,
        1.5,
        0.675,
        1.575,
        0.75,
        1.725,
        0.825,
        1.65,
        0,
        0.9,
        0.075,
        0.975,
        0.15,
        1.05,
        0.225,
        1.125,
        0.3,
        1.2,
        0.375,
        1.275,
        0.45,
        1.35,
        0.525,
        1.425,
        0.6,
        1.5,
        0.675,
        1.575,
        0.75,
        1.725,
        0.825,
        1.65
    ],
    "SoftwareVersions": "28_LX_MR_Software_release:RX28.0_R05_2035.a",
    "SpacingBetweenSlices": 2.5,
    "StationName": "Iowa3T",
    "TotalReadoutTime": 0.071628,
    "TriggerDelayTime": 10650,
    "dcmmeta_affine": [
        [
            -1.7187999486923218,
            0.0,
            0.0,
            105.62460327148438
        ],
        [
            0.0,
            1.7049633264541626,
            0.31658172607421875,
            -129.86085510253906
        ],
        [
            0.0,
            -0.21765488386154175,
            2.4798736572265625,
            -46.22635269165039
        ],
        [
            0.0,
            0.0,
            0.0,
            1.0
        ]
    ],
    "dcmmeta_reorient_transform": [
        [
            0.0,
            -1.0,
            0.0,
            127.0
        ],
        [
            1.0,
            0.0,
            0.0,
            0.0
        ],
        [
            0.0,
            0.0,
            -1.0,
            47.0
        ],
        [
            0.0,
            0.0,
            0.0,
            1.0
        ]
    ],
    "dcmmeta_shape": [
        128,
        128,
        48,
        6
    ],
    "dcmmeta_slice_dim": 2,
    "dcmmeta_version": 0.6,
    "global": {
        "const": {
            "AcquisitionMatrix": [
                88,
                0,
                0,
                88
            ],
            "AcquisitionNumber": 1,
            "AcquisitionTime": "080716",
            "AnatomicRegionSequence": [
                {
                    "CodeMeaning": "Brain",
                    "CodeValue": "T-A0100",
                    "CodingSchemeDesignator": "SRT"
                }
            ],
            "AngioFlag": "N",
            "BeatRejectionFlag": "Y",
            "BitsAllocated": 16,
            "BitsStored": 16,
            "BodyPartExamined": "BRAIN",
            "CardiacNumberOfImages": 0,
            "Columns": 128,
            "ContentTime": "080716",
            "EchoNumbers": 1,
            "EchoTime": 30.0,
            "EchoTrainLength": 1,
            "FlipAngle": 75.0,
            "GroupLength_0X40_0X0": 98,
            "GroupLength_0X7FE0_0X0": 32780,
            "HeartRate": 0,
            "HighBit": 15,
            "ImageType": [
                "ORIGINAL",
                "PRIMARY",
                "OTHER"
            ],
            "ImagedNucleus": "1H",
            "ImagesInAcquisition": 288,
            "ImagingFrequency": 127.753469,
            "InPlanePhaseEncodingDirection": "COL",
            "MRAcquisitionType": "2D",
            "MagneticFieldStrength": 3.0,
            "Manufacturer": "GE MEDICAL SYSTEMS",
            "ManufacturerModelName": "SIGNA Premier",
            "Modality": "MR",
            "NumberOfAverages": 1.0,
            "NumberOfTemporalPositions": 6,
            "PercentPhaseFieldOfView": 100.0,
            "PercentSampling": 100.0,
            "PerformedLocation": "Iowa",
            "PerformedProcedureStepStartTime": "075855",
            "PhotometricInterpretation": "MONOCHROME2",
            "PixelBandwidth": 3906.25,
            "PixelRepresentation": 1,
            "PixelSpacing": [
                1.7188,
                1.7188
            ],
            "ProtocolName": "HWANG_NET_THALHI",
            "ReceiveCoilName": "48HAP",
            "ReconstructionDiameter": 220.0,
            "ReferencedPerformedProcedureStepSequence": [
                {
                    "ReferencedSOPClassUID": "1.2.840.10008.3.1.2.3.3",
                    "ReferencedSOPInstanceUID": "1.2.840.113619.6.475.95446471235669803692041504590445110453"
                }
            ],
            "RepetitionTime": 1800.0,
            "Rows": 128,
            "SAR": 0.0749843,
            "SamplesPerPixel": 1,
            "ScanOptions": [
                "SAT_GEMS",
                "EDR_GEMS",
                "MP_GEMS",
                "EPI_GEMS",
                "HYPERBAND_GEMS",
                "FS"
            ],
            "ScanningSequence": [
                "EP",
                "GR"
            ],
            "SequenceVariant": "SS",
            "SeriesDescription": "EPI FM pepolar=0",
            "SeriesNumber": 4,
            "SeriesTime": "080716",
            "SliceThickness": 2.5,
            "SmallestImagePixelValue": 0,
            "SoftwareVersions": [
                "28",
                "LX",
                "MR Software release:RX28.0_R05_2035.a"
            ],
            "SpacingBetweenSlices": 2.5,
            "SpecificCharacterSet": "ISO_IR 100",
            "StackID": "1",
            "StudyID": "1312",
            "StudyTime": "075904",
            "TriggerWindow": 0,
            "VariableFlipAngleFlag": "N"
        },
        "slices": {
            "InstanceNumber": [
                1,
                2,
                3,
                4,
                5,
                6,
                7,
                8,
                9,
                10,
                11,
                12,
                13,
                14,
                15,
                16,
                17,
                18,
                19,
                20,
                21,
                22,
                23,
                24,
                25,
                26,
                27,
                28,
                29,
                30,
                31,
                32,
                33,
                34,
                35,
                36,
                37,
                38,
                39,
                40,
                41,
                42,
                43,
                44,
                45,
                46,
                47,
                48,
                49,
                50,
                51,
                52,
                53,
                54,
                55,
                56,
                57,
                58,
                59,
                60,
                61,
                62,
                63,
                64,
                65,
                66,
                67,
                68,
                69,
                70,
                71,
                72,
                73,
                74,
                75,
                76,
                77,
                78,
                79,
                80,
                81,
                82,
                83,
                84,
                85,
                86,
                87,
                88,
                89,
                90,
                91,
                92,
                93,
                94,
                95,
                96,
                97,
                98,
                99,
                100,
                101,
                102,
                103,
                104,
                105,
                106,
                107,
                108,
                109,
                110,
                111,
                112,
                113,
                114,
                115,
                116,
                117,
                118,
                119,
                120,
                121,
                122,
                123,
                124,
                125,
                126,
                127,
                128,
                129,
                130,
                131,
                132,
                133,
                134,
                135,
                136,
                137,
                138,
                139,
                140,
                141,
                142,
                143,
                144,
                145,
                146,
                147,
                148,
                149,
                150,
                151,
                152,
                153,
                154,
                155,
                156,
                157,
                158,
                159,
                160,
                161,
                162,
                163,
                164,
                165,
                166,
                167,
                168,
                169,
                170,
                171,
                172,
                173,
                174,
                175,
                176,
                177,
                178,
                179,
                180,
                181,
                182,
                183,
                184,
                185,
                186,
                187,
                188,
                189,
                190,
                191,
                192,
                193,
                194,
                195,
                196,
                197,
                198,
                199,
                200,
                201,
                202,
                203,
                204,
                205,
                206,
                207,
                208,
                209,
                210,
                211,
                212,
                213,
                214,
                215,
                216,
                217,
                218,
                219,
                220,
                221,
                222,
                223,
                224,
                225,
                226,
                227,
                228,
                229,
                230,
                231,
                232,
                233,
                234,
                235,
                236,
                237,
                238,
                239,
                240,
                241,
                242,
                243,
                244,
                245,
                246,
                247,
                248,
                249,
                250,
                251,
                252,
                253,
                254,
                255,
                256,
                257,
                258,
                259,
                260,
                261,
                262,
                263,
                264,
                265,
                266,
                267,
                268,
                269,
                270,
                271,
                272,
                273,
                274,
                275,
                276,
                277,
                278,
                279,
                280,
                281,
                282,
                283,
                284,
                285,
                286,
                287,
                288
            ],
            "LargestImagePixelValue": [
                5734,
                4943,
                6067,
                5665,
                5944,
                5367,
                6413,
                5772,
                7744,
                6554,
                7070,
                6490,
                7331,
                6606,
                8772,
                7276,
                8740,
                7199,
                7782,
                7819,
                8191,
                8255,
                10571,
                10107,
                10514,
                10144,
                11090,
                9029,
                11239,
                9170,
                10648,
                10726,
                10820,
                10132,
                10978,
                10778,
                12010,
                10727,
                12675,
                11684,
                11093,
                11017,
                11451,
                11993,
                12485,
                10529,
                11056,
                10457,
                5033,
                4055,
                4281,
                4545,
                4334,
                4558,
                4715,
                4755,
                5642,
                5163,
                5258,
                5280,
                5574,
                5205,
                6741,
                5836,
                6333,
                5887,
                5968,
                6102,
                5972,
                6622,
                8306,
                8204,
                7732,
                7951,
                8576,
                7417,
                8182,
                7437,
                8292,
                8355,
                8421,
                8287,
                8813,
                8806,
                9572,
                8817,
                10209,
                9725,
                9061,
                9101,
                9532,
                9888,
                10041,
                8651,
                8925,
                8748,
                5058,
                3941,
                4103,
                4420,
                4248,
                4446,
                4537,
                4534,
                5045,
                4946,
                5004,
                5125,
                5221,
                5122,
                6261,
                5503,
                6010,
                5633,
                5699,
                5816,
                5526,
                6186,
                7514,
                7772,
                7179,
                7307,
                7821,
                6987,
                7933,
                6892,
                7616,
                7324,
                7447,
                7627,
                8155,
                8091,
                8815,
                8154,
                9474,
                8994,
                8351,
                8489,
                8740,
                8870,
                9229,
                8013,
                8113,
                8125,
                5022,
                3885,
                4060,
                4316,
                4124,
                4398,
                4459,
                4483,
                5048,
                4941,
                5051,
                5209,
                5007,
                5057,
                6016,
                5604,
                5717,
                5561,
                5536,
                5749,
                5579,
                6128,
                7298,
                7462,
                6978,
                6807,
                7637,
                6818,
                7551,
                6837,
                7417,
                7125,
                7454,
                7377,
                7796,
                7848,
                8538,
                7896,
                9115,
                8670,
                8186,
                8217,
                8339,
                8642,
                8935,
                7731,
                7843,
                7846,
                4243,
                3890,
                4069,
                4265,
                4040,
                4365,
                4419,
                4436,
                5101,
                4882,
                4953,
                5077,
                4941,
                4934,
                5992,
                5487,
                5808,
                5551,
                5550,
                5775,
                5603,
                6164,
                7242,
                7188,
                6860,
                7110,
                7559,
                6753,
                7538,
                6724,
                7312,
                7492,
                7094,
                7298,
                7684,
                7730,
                8401,
                7805,
                9061,
                8629,
                8060,
                8151,
                8254,
                8787,
                8820,
                7665,
                7672,
                7768,
                3889,
                3884,
                4120,
                4303,
                4096,
                4316,
                4410,
                4555,
                5047,
                4957,
                4631,
                4927,
                5001,
                4835,
                5856,
                5558,
                5851,
                5547,
                5572,
                5775,
                5501,
                5977,
                7170,
                7284,
                6827,
                7021,
                7623,
                6834,
                7462,
                6693,
                7293,
                7458,
                7336,
                7062,
                7537,
                7640,
                8348,
                7776,
                8975,
                8547,
                7957,
                7672,
                8285,
                8780,
                8804,
                7666,
                7690,
                7718
            ],
            "TriggerTime": [
                75.0,
                975.0,
                150.0,
                1050.0,
                225.0,
                1125.0,
                300.0,
                1200.0,
                375.0,
                1275.0,
                450.0,
                1350.0,
                525.0,
                1425.0,
                600.0,
                1500.0,
                675.0,
                1575.0,
                750.0,
                1650.0,
                825.0,
                1800.0,
                900.0,
                1725.0,
                75.0,
                975.0,
                150.0,
                1050.0,
                225.0,
                1125.0,
                300.0,
                1200.0,
                375.0,
                1275.0,
                450.0,
                1350.0,
                525.0,
                1425.0,
                600.0,
                1500.0,
                675.0,
                1575.0,
                750.0,
                1650.0,
                825.0,
                1800.0,
                900.0,
                1725.0,
                1875.0,
                2775.0,
                1950.0,
                2850.0,
                2025.0,
                2925.0,
                2100.0,
                3000.0,
                2175.0,
                3075.0,
                2250.0,
                3150.0,
                2325.0,
                3225.0,
                2400.0,
                3300.0,
                2475.0,
                3375.0,
                2550.0,
                3450.0,
                2625.0,
                3600.0,
                2700.0,
                3525.0,
                1875.0,
                2775.0,
                1950.0,
                2850.0,
                2025.0,
                2925.0,
                2100.0,
                3000.0,
                2175.0,
                3075.0,
                2250.0,
                3150.0,
                2325.0,
                3225.0,
                2400.0,
                3300.0,
                2475.0,
                3375.0,
                2550.0,
                3450.0,
                2625.0,
                3600.0,
                2700.0,
                3525.0,
                3675.0,
                4575.0,
                3750.0,
                4650.0,
                3825.0,
                4725.0,
                3900.0,
                4800.0,
                3975.0,
                4875.0,
                4050.0,
                4950.0,
                4125.0,
                5025.0,
                4200.0,
                5100.0,
                4275.0,
                5175.0,
                4350.0,
                5250.0,
                4425.0,
                5400.0,
                4500.0,
                5325.0,
                3675.0,
                4575.0,
                3750.0,
                4650.0,
                3825.0,
                4725.0,
                3900.0,
                4800.0,
                3975.0,
                4875.0,
                4050.0,
                4950.0,
                4125.0,
                5025.0,
                4200.0,
                5100.0,
                4275.0,
                5175.0,
                4350.0,
                5250.0,
                4425.0,
                5400.0,
                4500.0,
                5325.0,
                5475.0,
                6375.0,
                5550.0,
                6450.0,
                5625.0,
                6525.0,
                5700.0,
                6600.0,
                5775.0,
                6675.0,
                5850.0,
                6750.0,
                5925.0,
                6825.0,
                6000.0,
                6900.0,
                6075.0,
                6975.0,
                6150.0,
                7050.0,
                6225.0,
                7200.0,
                6300.0,
                7125.0,
                5475.0,
                6375.0,
                5550.0,
                6450.0,
                5625.0,
                6525.0,
                5700.0,
                6600.0,
                5775.0,
                6675.0,
                5850.0,
                6750.0,
                5925.0,
                6825.0,
                6000.0,
                6900.0,
                6075.0,
                6975.0,
                6150.0,
                7050.0,
                6225.0,
                7200.0,
                6300.0,
                7125.0,
                7275.0,
                8175.0,
                7350.0,
                8250.0,
                7425.0,
                8325.0,
                7500.0,
                8400.0,
                7575.0,
                8475.0,
                7650.0,
                8550.0,
                7725.0,
                8625.0,
                7800.0,
                8700.0,
                7875.0,
                8775.0,
                7950.0,
                8850.0,
                8025.0,
                9000.0,
                8100.0,
                8925.0,
                7275.0,
                8175.0,
                7350.0,
                8250.0,
                7425.0,
                8325.0,
                7500.0,
                8400.0,
                7575.0,
                8475.0,
                7650.0,
                8550.0,
                7725.0,
                8625.0,
                7800.0,
                8700.0,
                7875.0,
                8775.0,
                7950.0,
                8850.0,
                8025.0,
                9000.0,
                8100.0,
                8925.0,
                9075.0,
                9975.0,
                9150.0,
                10050.0,
                9225.0,
                10125.0,
                9300.0,
                10200.0,
                9375.0,
                10275.0,
                9450.0,
                10350.0,
                9525.0,
                10425.0,
                9600.0,
                10500.0,
                9675.0,
                10575.0,
                9750.0,
                10650.0,
                9825.0,
                10800.0,
                9900.0,
                10725.0,
                9075.0,
                9975.0,
                9150.0,
                10050.0,
                9225.0,
                10125.0,
                9300.0,
                10200.0,
                9375.0,
                10275.0,
                9450.0,
                10350.0,
                9525.0,
                10425.0,
                9600.0,
                10500.0,
                9675.0,
                10575.0,
                9750.0,
                10650.0,
                9825.0,
                10800.0,
                9900.0,
                10725.0
            ],
            "WindowCenter": [
                3440.0,
                2965.0,
                3640.0,
                3399.0,
                3566.0,
                3220.0,
                3847.0,
                3463.0,
                4646.0,
                3932.0,
                4242.0,
                3894.0,
                4398.0,
                3963.0,
                5263.0,
                4365.0,
                5244.0,
                4319.0,
                4669.0,
                4691.0,
                4914.0,
                4953.0,
                6342.0,
                6064.0,
                6308.0,
                6086.0,
                6654.0,
                5417.0,
                6743.0,
                5502.0,
                6388.0,
                6435.0,
                6492.0,
                6079.0,
                6586.0,
                6466.0,
                7206.0,
                6436.0,
                7605.0,
                7010.0,
                6655.0,
                6610.0,
                6870.0,
                7195.0,
                7491.0,
                6317.0,
                6633.0,
                6274.0,
                3019.0,
                2433.0,
                2568.0,
                2727.0,
                2600.0,
                2734.0,
                2829.0,
                2853.0,
                3385.0,
                3097.0,
                3154.0,
                3168.0,
                3344.0,
                3123.0,
                4044.0,
                3501.0,
                3799.0,
                3532.0,
                3580.0,
                3661.0,
                3583.0,
                3973.0,
                4983.0,
                4922.0,
                4639.0,
                4770.0,
                5145.0,
                4450.0,
                4909.0,
                4462.0,
                4975.0,
                5013.0,
                5052.0,
                4972.0,
                5287.0,
                5283.0,
                5743.0,
                5290.0,
                6125.0,
                5835.0,
                5436.0,
                5460.0,
                5719.0,
                5932.0,
                6024.0,
                5190.0,
                5355.0,
                5248.0,
                3034.0,
                2364.0,
                2461.0,
                2652.0,
                2548.0,
                2667.0,
                2722.0,
                2720.0,
                3027.0,
                2967.0,
                3002.0,
                3075.0,
                3132.0,
                3073.0,
                3756.0,
                3301.0,
                3606.0,
                3379.0,
                3419.0,
                3489.0,
                3315.0,
                3711.0,
                4508.0,
                4663.0,
                4307.0,
                4384.0,
                4692.0,
                4192.0,
                4759.0,
                4135.0,
                4569.0,
                4394.0,
                4468.0,
                4576.0,
                4893.0,
                4854.0,
                5289.0,
                4892.0,
                5684.0,
                5396.0,
                5010.0,
                5093.0,
                5244.0,
                5322.0,
                5537.0,
                4807.0,
                4867.0,
                4875.0,
