{
    "AcquisitionMatrixPE": 88,
    "AcquisitionNumber": 1,
    "AcquisitionTime": "08:38:43.000000",
    "BodyPartExamined": "BRAIN",
    "CoilString": "48HAP",
    "ConversionSoftware": "dcm2niix",
    "ConversionSoftwareVersion": "v1.0.20190410  GCC6.3.0",
    "DeviceSerialNumber": "0000000319335MR2",
    "EchoTime": 0.03,
    "EffectiveEchoSpacing": 0.000564,
    "FlipAngle": 75,
    "ImageOrientationPatientDICOM": [
        1,
        0,
        0,
        0,
        0.99195,
        0.126632
    ],
    "ImageType": [
        "ORIGINAL",
        "PRIMARY",
        "OTHER"
    ],
    "ImagingFrequency": 127.753,
    "InPlanePhaseEncodingDirectionDICOM": "COL",
    "InstitutionName": "Iowa_MRRF",
    "IntendedFor": [
        "func/sub-10034_task-ThalHi_run-005_bold.nii.gz",
        "func/sub-10034_task-ThalHi_run-006_bold.nii.gz",
        "func/sub-10034_task-ThalHi_run-007_bold.nii.gz",
        "func/sub-10034_task-ThalHi_run-008_bold.nii.gz"
    ],
    "MRAcquisitionType": "2D",
    "MagneticFieldStrength": 3,
    "Manufacturer": "GE",
    "ManufacturersModelName": "SIGNA_Premier",
    "Modality": "MR",
    "PatientPosition": "HFS",
    "PercentPhaseFOV": 100,
    "PhaseEncodingDirection": "j",
    "PhaseEncodingPolarityGE": "Flipped",
    "PixelBandwidth": 3906.25,
    "ProcedureStepDescription": "HWANG_NET",
    "ProtocolName": "EPI_FM_pepolar=0",
    "ReconMatrixPE": 128,
    "RepetitionTime": 1.8,
    "SAR": 0.0740426,
    "ScanOptions": "SAT_GEMS_EDR_GEMS_MP_GEMS_EPI_GEMS_HYPERBAND_GEMS_FS",
    "ScanningSequence": "EP_GR",
    "SequenceVariant": "SS",
    "SeriesDescription": "EPI_FM_pepolar=0",
    "SeriesNumber": 10,
    "SliceThickness": 2.5,
    "SliceTiming": [
        0,
        0.9,
        0.075,
        0.975,
        0.15,
        1.05,
        0.225,
        1.125,
        0.3,
        1.2,
        0.375,
        1.275,
        0.45,
        1.35,
        0.525,
        1.425,
        0.6,
        1.5,
        0.675,
        1.575,
        0.75,
        1.725,
        0.825,
        1.65,
        0,
        0.9,
        0.075,
        0.975,
        0.15,
        1.05,
        0.225,
        1.125,
        0.3,
        1.2,
        0.375,
        1.275,
        0.45,
        1.35,
        0.525,
        1.425,
        0.6,
        1.5,
        0.675,
        1.575,
        0.75,
        1.725,
        0.825,
        1.65
    ],
    "SoftwareVersions": "28_LX_MR_Software_release:RX28.0_R05_2035.a",
    "SpacingBetweenSlices": 2.5,
    "StationName": "Iowa3T",
    "TotalReadoutTime": 0.071628,
    "TriggerDelayTime": 10650,
    "dcmmeta_affine": [
        [
            -1.7187999486923218,
            0.0,
            0.0,
            105.62460327148438
        ],
        [
            0.0,
            1.7049633264541626,
            0.31658172607421875,
            -129.86085510253906
        ],
        [
            0.0,
            -0.21765488386154175,
            2.4798736572265625,
            -46.22635269165039
        ],
        [
            0.0,
            0.0,
            0.0,
            1.0
        ]
    ],
    "dcmmeta_reorient_transform": [
        [
            0.0,
            -1.0,
            0.0,
            127.0
        ],
        [
            1.0,
            0.0,
            0.0,
            0.0
        ],
        [
            0.0,
            0.0,
            -1.0,
            47.0
        ],
        [
            0.0,
            0.0,
            0.0,
            1.0
        ]
    ],
    "dcmmeta_shape": [
        128,
        128,
        48,
        6
    ],
    "dcmmeta_slice_dim": 2,
    "dcmmeta_version": 0.6,
    "global": {
        "const": {
            "AcquisitionMatrix": [
                88,
                0,
                0,
                88
            ],
            "AcquisitionNumber": 1,
            "AcquisitionTime": "083843",
            "AnatomicRegionSequence": [
                {
                    "CodeMeaning": "Brain",
                    "CodeValue": "T-A0100",
                    "CodingSchemeDesignator": "SRT"
                }
            ],
            "AngioFlag": "N",
            "BeatRejectionFlag": "Y",
            "BitsAllocated": 16,
            "BitsStored": 16,
            "BodyPartExamined": "BRAIN",
            "CardiacNumberOfImages": 0,
            "Columns": 128,
            "ContentTime": "083843",
            "EchoNumbers": 1,
            "EchoTime": 30.0,
            "EchoTrainLength": 1,
            "FlipAngle": 75.0,
            "GroupLength_0X40_0X0": 98,
            "GroupLength_0X7FE0_0X0": 32780,
            "HeartRate": 0,
            "HighBit": 15,
            "ImageType": [
                "ORIGINAL",
                "PRIMARY",
                "OTHER"
            ],
            "ImagedNucleus": "1H",
            "ImagesInAcquisition": 288,
            "ImagingFrequency": 127.753469,
            "InPlanePhaseEncodingDirection": "COL",
            "MRAcquisitionType": "2D",
            "MagneticFieldStrength": 3.0,
            "Manufacturer": "GE MEDICAL SYSTEMS",
            "ManufacturerModelName": "SIGNA Premier",
            "Modality": "MR",
            "NumberOfAverages": 1.0,
            "NumberOfTemporalPositions": 6,
            "PercentPhaseFieldOfView": 100.0,
            "PercentSampling": 100.0,
            "PerformedLocation": "Iowa",
            "PerformedProcedureStepStartTime": "075855",
            "PhotometricInterpretation": "MONOCHROME2",
            "PixelBandwidth": 3906.25,
            "PixelRepresentation": 1,
            "PixelSpacing": [
                1.7188,
                1.7188
            ],
            "ProtocolName": "HWANG_NET_THALHI",
            "ReceiveCoilName": "48HAP",
            "ReconstructionDiameter": 220.0,
            "ReferencedPerformedProcedureStepSequence": [
                {
                    "ReferencedSOPClassUID": "1.2.840.10008.3.1.2.3.3",
                    "ReferencedSOPInstanceUID": "1.2.840.113619.6.475.95446471235669803692041504590445110453"
                }
            ],
            "RepetitionTime": 1800.0,
            "Rows": 128,
            "SAR": 0.0740426,
            "SamplesPerPixel": 1,
            "ScanOptions": [
                "SAT_GEMS",
                "EDR_GEMS",
                "MP_GEMS",
                "EPI_GEMS",
                "HYPERBAND_GEMS",
                "FS"
            ],
            "ScanningSequence": [
                "EP",
                "GR"
            ],
            "SequenceVariant": "SS",
            "SeriesDescription": "EPI FM pepolar=0",
            "SeriesNumber": 10,
            "SeriesTime": "083843",
            "SliceThickness": 2.5,
            "SmallestImagePixelValue": 0,
            "SoftwareVersions": [
                "28",
                "LX",
                "MR Software release:RX28.0_R05_2035.a"
            ],
            "SpacingBetweenSlices": 2.5,
            "SpecificCharacterSet": "ISO_IR 100",
            "StackID": "1",
            "StudyID": "1312",
            "StudyTime": "075904",
            "TriggerWindow": 0,
            "VariableFlipAngleFlag": "N"
        },
        "slices": {
            "InstanceNumber": [
                1,
                2,
                3,
                4,
                5,
                6,
                7,
                8,
                9,
                10,
                11,
                12,
                13,
                14,
                15,
                16,
                17,
                18,
                19,
                20,
                21,
                22,
                23,
                24,
                25,
                26,
                27,
                28,
                29,
                30,
                31,
                32,
                33,
                34,
                35,
                36,
                37,
                38,
                39,
                40,
                41,
                42,
                43,
                44,
                45,
                46,
                47,
                48,
                49,
                50,
                51,
                52,
                53,
                54,
                55,
                56,
                57,
                58,
                59,
                60,
                61,
                62,
                63,
                64,
                65,
                66,
                67,
                68,
                69,
                70,
                71,
                72,
                73,
                74,
                75,
                76,
                77,
                78,
                79,
                80,
                81,
                82,
                83,
                84,
                85,
                86,
                87,
                88,
                89,
                90,
                91,
                92,
                93,
                94,
                95,
                96,
                97,
                98,
                99,
                100,
                101,
                102,
                103,
                104,
                105,
                106,
                107,
                108,
                109,
                110,
                111,
                112,
                113,
                114,
                115,
                116,
                117,
                118,
                119,
                120,
                121,
                122,
                123,
                124,
                125,
                126,
                127,
                128,
                129,
                130,
                131,
                132,
                133,
                134,
                135,
                136,
                137,
                138,
                139,
                140,
                141,
                142,
                143,
                144,
                145,
                146,
                147,
                148,
                149,
                150,
                151,
                152,
                153,
                154,
                155,
                156,
                157,
                158,
                159,
                160,
                161,
                162,
                163,
                164,
                165,
                166,
                167,
                168,
                169,
                170,
                171,
                172,
                173,
                174,
                175,
                176,
                177,
                178,
                179,
                180,
                181,
                182,
                183,
                184,
                185,
                186,
                187,
                188,
                189,
                190,
                191,
                192,
                193,
                194,
                195,
                196,
                197,
                198,
                199,
                200,
                201,
                202,
                203,
                204,
                205,
                206,
                207,
                208,
                209,
                210,
                211,
                212,
                213,
                214,
                215,
                216,
                217,
                218,
                219,
                220,
                221,
                222,
                223,
                224,
                225,
                226,
                227,
                228,
                229,
                230,
                231,
                232,
                233,
                234,
                235,
                236,
                237,
                238,
                239,
                240,
                241,
                242,
                243,
                244,
                245,
                246,
                247,
                248,
                249,
                250,
                251,
                252,
                253,
                254,
                255,
                256,
                257,
                258,
                259,
                260,
                261,
                262,
                263,
                264,
                265,
                266,
                267,
                268,
                269,
                270,
                271,
                272,
                273,
                274,
                275,
                276,
                277,
                278,
                279,
                280,
                281,
                282,
                283,
                284,
                285,
                286,
                287,
                288
            ],
            "LargestImagePixelValue": [
                5530,
                4783,
                5700,
                5516,
                6299,
                5284,
                6095,
                5561,
                7049,
                6266,
                6808,
                6009,
                6973,
                6566,
                8379,
                7031,
                7325,
                6861,
                7235,
                7163,
                7850,
                7553,
                9779,
                8538,
                9363,
                9705,
                10374,
                8847,
                10429,
                8904,
                8971,
                10008,
                9802,
                9431,
                10495,
                9784,
                10535,
                9876,
                11160,
                11075,
                10524,
                9507,
                10328,
                10628,
                10468,
                9509,
                10084,
                10175,
                4790,
                3988,
                4158,
                4491,
                4584,
                4355,
                4712,
                4664,
                5375,
                5188,
                5347,
                5044,
                5605,
                5610,
                6745,
                5872,
                5749,
                5813,
                6121,
                6011,
                6124,
                6457,
                7995,
                7388,
                7619,
                8080,
                8328,
                7471,
                8414,
                7286,
                7349,
                8340,
                8083,
                8133,
                8669,
                8443,
                8925,
                8589,
                10027,
                9723,
                9193,
                8229,
                8996,
                9334,
                9057,
                8228,
                8659,
                8975,
                4236,
                3874,
                4026,
                4403,
                4320,
                4395,
                4620,
                4551,
                5124,
                5008,
                5128,
                4984,
                5103,
                5335,
                6418,
                5705,
                5426,
                5619,
                5853,
                5712,
                5756,
                6214,
                7560,
                6961,
                7141,
                7630,
                7872,
                7060,
                7884,
                6896,
                6934,
                7761,
                7545,
                7734,
                8133,
                8045,
                8374,
                8089,
                9401,
                8833,
                8780,
                7857,
                8505,
                8755,
                8526,
                7748,
                8104,
                8557,
                4201,
                4022,
                4004,
                4391,
                4172,
                4358,
                4523,
                4511,
                5102,
                4999,
                5087,
                4910,
                5020,
                5153,
                6351,
                5776,
                5383,
                5506,
                5780,
                5589,
                5649,
                6063,
                6769,
                6839,
                6962,
                7428,
                7718,
                6824,
                7832,
                6788,
                6805,
                7528,
                7359,
                7623,
                7912,
                7888,
                8245,
                7948,
                9331,
                9165,
                8569,
                7724,
                8315,
                8563,
                8145,
                7619,
                7860,
                7755,
                3957,
                3866,
                3981,
                4230,
                4184,
                4406,
                4507,
                4477,
                5036,
                4942,
                4785,
                4864,
                4921,
                4980,
                5847,
                5732,
                5409,
                5511,
                5720,
                5579,
                5689,
                6005,
                6640,
                6910,
                6935,
                7222,
                7656,
                6787,
                7759,
                6748,
                6831,
                7604,
                7303,
                7501,
                7872,
                7848,
                8131,
                7866,
                9169,
                8959,
                8427,
                7661,
                8232,
                8474,
                8405,
                7530,
                7872,
                8373,
                4275,
                3841,
                4004,
                4263,
                4085,
                4070,
                4490,
                4422,
                4916,
                5015,
                5032,
                4680,
                4953,
                4805,
                5931,
                5739,
                5302,
                5464,
                5774,
                5562,
                5715,
                6250,
                7347,
                6837,
                6754,
                7121,
                7509,
                6740,
                7709,
                6663,
                6790,
                7570,
                7241,
                7456,
                7886,
                7565,
                8057,
                7864,
                8827,
                8975,
                8445,
                7659,
                8137,
                8441,
                8383,
                7668,
                7895,
                8382
            ],
            "TriggerTime": [
                75.0,
                975.0,
                150.0,
                1050.0,
                225.0,
                1125.0,
                300.0,
                1200.0,
                375.0,
                1275.0,
                450.0,
                1350.0,
                525.0,
                1425.0,
                600.0,
                1500.0,
                675.0,
                1575.0,
                750.0,
                1650.0,
                825.0,
                1800.0,
                900.0,
                1725.0,
                75.0,
                975.0,
                150.0,
                1050.0,
                225.0,
                1125.0,
                300.0,
                1200.0,
                375.0,
                1275.0,
                450.0,
                1350.0,
                525.0,
                1425.0,
                600.0,
                1500.0,
                675.0,
                1575.0,
                750.0,
                1650.0,
                825.0,
                1800.0,
                900.0,
                1725.0,
                1875.0,
                2775.0,
                1950.0,
                2850.0,
                2025.0,
                2925.0,
                2100.0,
                3000.0,
                2175.0,
                3075.0,
                2250.0,
                3150.0,
                2325.0,
                3225.0,
                2400.0,
                3300.0,
                2475.0,
                3375.0,
                2550.0,
                3450.0,
                2625.0,
                3600.0,
                2700.0,
                3525.0,
                1875.0,
                2775.0,
                1950.0,
                2850.0,
                2025.0,
                2925.0,
                2100.0,
                3000.0,
                2175.0,
                3075.0,
                2250.0,
                3150.0,
                2325.0,
                3225.0,
                2400.0,
                3300.0,
                2475.0,
                3375.0,
                2550.0,
                3450.0,
                2625.0,
                3600.0,
                2700.0,
                3525.0,
                3675.0,
                4575.0,
                3750.0,
                4650.0,
                3825.0,
                4725.0,
                3900.0,
                4800.0,
                3975.0,
                4875.0,
                4050.0,
                4950.0,
                4125.0,
                5025.0,
                4200.0,
                5100.0,
                4275.0,
                5175.0,
                4350.0,
                5250.0,
                4425.0,
                5400.0,
                4500.0,
                5325.0,
                3675.0,
                4575.0,
                3750.0,
                4650.0,
                3825.0,
                4725.0,
                3900.0,
                4800.0,
                3975.0,
                4875.0,
                4050.0,
                4950.0,
                4125.0,
                5025.0,
                4200.0,
                5100.0,
                4275.0,
                5175.0,
                4350.0,
                5250.0,
                4425.0,
                5400.0,
                4500.0,
                5325.0,
                5475.0,
                6375.0,
                5550.0,
                6450.0,
                5625.0,
                6525.0,
                5700.0,
                6600.0,
                5775.0,
                6675.0,
                5850.0,
                6750.0,
                5925.0,
                6825.0,
                6000.0,
                6900.0,
                6075.0,
                6975.0,
                6150.0,
                7050.0,
                6225.0,
                7200.0,
                6300.0,
                7125.0,
                5475.0,
                6375.0,
                5550.0,
                6450.0,
                5625.0,
                6525.0,
                5700.0,
                6600.0,
                5775.0,
                6675.0,
                5850.0,
                6750.0,
                5925.0,
                6825.0,
                6000.0,
                6900.0,
                6075.0,
                6975.0,
                6150.0,
                7050.0,
                6225.0,
                7200.0,
                6300.0,
                7125.0,
                7275.0,
                8175.0,
                7350.0,
                8250.0,
                7425.0,
                8325.0,
                7500.0,
                8400.0,
                7575.0,
                8475.0,
                7650.0,
                8550.0,
                7725.0,
                8625.0,
                7800.0,
                8700.0,
                7875.0,
                8775.0,
                7950.0,
                8850.0,
                8025.0,
                9000.0,
                8100.0,
                8925.0,
                7275.0,
                8175.0,
                7350.0,
                8250.0,
                7425.0,
                8325.0,
                7500.0,
                8400.0,
                7575.0,
                8475.0,
                7650.0,
                8550.0,
                7725.0,
                8625.0,
                7800.0,
                8700.0,
                7875.0,
                8775.0,
                7950.0,
                8850.0,
                8025.0,
                9000.0,
                8100.0,
                8925.0,
                9075.0,
                9975.0,
                9150.0,
                10050.0,
                9225.0,
                10125.0,
                9300.0,
                10200.0,
                9375.0,
                10275.0,
                9450.0,
                10350.0,
                9525.0,
                10425.0,
                9600.0,
                10500.0,
                9675.0,
                10575.0,
                9750.0,
                10650.0,
                9825.0,
                10800.0,
                9900.0,
                10725.0,
                9075.0,
                9975.0,
                9150.0,
                10050.0,
                9225.0,
                10125.0,
                9300.0,
                10200.0,
                9375.0,
                10275.0,
                9450.0,
                10350.0,
                9525.0,
                10425.0,
                9600.0,
                10500.0,
                9675.0,
                10575.0,
                9750.0,
                10650.0,
                9825.0,
                10800.0,
                9900.0,
                10725.0
            ],
            "WindowCenter": [
                3318.0,
                2869.0,
                3420.0,
                3309.0,
                3779.0,
                3170.0,
                3657.0,
                3336.0,
                4229.0,
                3759.0,
                4084.0,
                3605.0,
                4183.0,
                3939.0,
                5027.0,
                4218.0,
                4395.0,
                4116.0,
                4341.0,
                4297.0,
                4710.0,
                4531.0,
                5867.0,
                5122.0,
                5617.0,
                5823.0,
                6224.0,
                5308.0,
                6257.0,
                5342.0,
                5382.0,
                6004.0,
                5881.0,
                5658.0,
                6297.0,
                5870.0,
                6321.0,
                5925.0,
                6696.0,
                6645.0,
                6314.0,
                5704.0,
                6196.0,
                6376.0,
                6280.0,
                5705.0,
                6050.0,
                6105.0,
                2874.0,
                2392.0,
                2494.0,
                2694.0,
                2750.0,
                2613.0,
                2827.0,
                2798.0,
                3225.0,
                3112.0,
                3208.0,
                3026.0,
                3363.0,
                3366.0,
                4047.0,
                3523.0,
                3449.0,
                3487.0,
                3672.0,
                3606.0,
                3674.0,
                3874.0,
                4797.0,
                4432.0,
                4571.0,
                4848.0,
                4996.0,
                4482.0,
                5048.0,
                4371.0,
                4409.0,
                5004.0,
                4849.0,
                4879.0,
                5201.0,
                5065.0,
                5355.0,
                5153.0,
                6016.0,
                5833.0,
                5515.0,
                4937.0,
                5397.0,
                5600.0,
                5434.0,
                4936.0,
                5195.0,
                5385.0,
                2541.0,
                2324.0,
                2415.0,
                2641.0,
                2592.0,
                2637.0,
                2772.0,
                2730.0,
                3074.0,
                3004.0,
                3076.0,
                2990.0,
                3061.0,
                3201.0,
                3850.0,
                3423.0,
                3255.0,
                3371.0,
                3511.0,
                3427.0,
                3453.0,
                3728.0,
                4536.0,
                4176.0,
                4284.0,
                4578.0,
                4723.0,
                4236.0,
                4730.0,
                4137.0,
                4160.0,
                4656.0,
                4527.0,
                4640.0,
                4879.0,
                4827.0,
                5024.0,
                4853.0,
                5640.0,
                5299.0,
                5268.0,
                4714.0,
                5103.0,
                5253.0,
                5115.0,
                4648.0,
                4862.0,
                5134.0,
