{
    "AcquisitionMatrixPE": 88,
    "AcquisitionNumber": 1,
    "AcquisitionTime": "08:39:10.000000",
    "BodyPartExamined": "BRAIN",
    "CoilString": "48HAP",
    "ConversionSoftware": "dcm2niix",
    "ConversionSoftwareVersion": "v1.0.20190410  GCC6.3.0",
    "DeviceSerialNumber": "0000000319335MR2",
    "EchoTime": 0.03,
    "EffectiveEchoSpacing": 0.000564,
    "FlipAngle": 75,
    "ImageOrientationPatientDICOM": [
        1,
        0,
        0,
        0,
        0.99195,
        0.126632
    ],
    "ImageType": [
        "ORIGINAL",
        "PRIMARY",
        "OTHER"
    ],
    "ImagingFrequency": 127.753,
    "InPlanePhaseEncodingDirectionDICOM": "COL",
    "InstitutionName": "Iowa_MRRF",
    "IntendedFor": [
        "func/sub-10034_task-ThalHi_run-005_bold.nii.gz",
        "func/sub-10034_task-ThalHi_run-006_bold.nii.gz",
        "func/sub-10034_task-ThalHi_run-007_bold.nii.gz",
        "func/sub-10034_task-ThalHi_run-008_bold.nii.gz"
    ],
    "MRAcquisitionType": "2D",
    "MagneticFieldStrength": 3,
    "Manufacturer": "GE",
    "ManufacturersModelName": "SIGNA_Premier",
    "Modality": "MR",
    "PatientPosition": "HFS",
    "PercentPhaseFOV": 100,
    "PhaseEncodingDirection": "j-",
    "PhaseEncodingPolarityGE": "Unflipped",
    "PixelBandwidth": 3906.25,
    "ProcedureStepDescription": "HWANG_NET",
    "ProtocolName": "EPI_FM_pepolar=1",
    "ReconMatrixPE": 128,
    "RepetitionTime": 1.8,
    "SAR": 0.0740426,
    "ScanOptions": "SAT_GEMS_EDR_GEMS_MP_GEMS_EPI_GEMS_HYPERBAND_GEMS_FS",
    "ScanningSequence": "EP_GR",
    "SequenceVariant": "SS",
    "SeriesDescription": "EPI_FM_pepolar=1",
    "SeriesNumber": 11,
    "SliceThickness": 2.5,
    "SliceTiming": [
        0,
        0.9,
        0.075,
        0.975,
        0.15,
        1.05,
        0.225,
        1.125,
        0.3,
        1.2,
        0.375,
        1.275,
        0.45,
        1.35,
        0.525,
        1.425,
        0.6,
        1.5,
        0.675,
        1.575,
        0.75,
        1.725,
        0.825,
        1.65,
        0,
        0.9,
        0.075,
        0.975,
        0.15,
        1.05,
        0.225,
        1.125,
        0.3,
        1.2,
        0.375,
        1.275,
        0.45,
        1.35,
        0.525,
        1.425,
        0.6,
        1.5,
        0.675,
        1.575,
        0.75,
        1.725,
        0.825,
        1.65
    ],
    "SoftwareVersions": "28_LX_MR_Software_release:RX28.0_R05_2035.a",
    "SpacingBetweenSlices": 2.5,
    "StationName": "Iowa3T",
    "TotalReadoutTime": 0.071628,
    "TriggerDelayTime": 10650,
    "dcmmeta_affine": [
        [
            -1.7187999486923218,
            0.0,
            0.0,
            105.62460327148438
        ],
        [
            0.0,
            1.7049633264541626,
            0.31658172607421875,
            -129.86085510253906
        ],
        [
            0.0,
            -0.21765488386154175,
            2.4798736572265625,
            -46.22635269165039
        ],
        [
            0.0,
            0.0,
            0.0,
            1.0
        ]
    ],
    "dcmmeta_reorient_transform": [
        [
            0.0,
            -1.0,
            0.0,
            127.0
        ],
        [
            1.0,
            0.0,
            0.0,
            0.0
        ],
        [
            0.0,
            0.0,
            -1.0,
            47.0
        ],
        [
            0.0,
            0.0,
            0.0,
            1.0
        ]
    ],
    "dcmmeta_shape": [
        128,
        128,
        48,
        6
    ],
    "dcmmeta_slice_dim": 2,
    "dcmmeta_version": 0.6,
    "global": {
        "const": {
            "AcquisitionMatrix": [
                88,
                0,
                0,
                88
            ],
            "AcquisitionNumber": 1,
            "AcquisitionTime": "083910",
            "AnatomicRegionSequence": [
                {
                    "CodeMeaning": "Brain",
                    "CodeValue": "T-A0100",
                    "CodingSchemeDesignator": "SRT"
                }
            ],
            "AngioFlag": "N",
            "BeatRejectionFlag": "Y",
            "BitsAllocated": 16,
            "BitsStored": 16,
            "BodyPartExamined": "BRAIN",
            "CardiacNumberOfImages": 0,
            "Columns": 128,
            "ContentTime": "083910",
            "EchoNumbers": 1,
            "EchoTime": 30.0,
            "EchoTrainLength": 1,
            "FlipAngle": 75.0,
            "GroupLength_0X40_0X0": 98,
            "GroupLength_0X7FE0_0X0": 32780,
            "HeartRate": 0,
            "HighBit": 15,
            "ImageType": [
                "ORIGINAL",
                "PRIMARY",
                "OTHER"
            ],
            "ImagedNucleus": "1H",
            "ImagesInAcquisition": 288,
            "ImagingFrequency": 127.753469,
            "InPlanePhaseEncodingDirection": "COL",
            "MRAcquisitionType": "2D",
            "MagneticFieldStrength": 3.0,
            "Manufacturer": "GE MEDICAL SYSTEMS",
            "ManufacturerModelName": "SIGNA Premier",
            "Modality": "MR",
            "NumberOfAverages": 1.0,
            "NumberOfTemporalPositions": 6,
            "PercentPhaseFieldOfView": 100.0,
            "PercentSampling": 100.0,
            "PerformedLocation": "Iowa",
            "PerformedProcedureStepStartTime": "075855",
            "PhotometricInterpretation": "MONOCHROME2",
            "PixelBandwidth": 3906.25,
            "PixelRepresentation": 1,
            "PixelSpacing": [
                1.7188,
                1.7188
            ],
            "ProtocolName": "HWANG_NET_THALHI",
            "ReceiveCoilName": "48HAP",
            "ReconstructionDiameter": 220.0,
            "ReferencedPerformedProcedureStepSequence": [
                {
                    "ReferencedSOPClassUID": "1.2.840.10008.3.1.2.3.3",
                    "ReferencedSOPInstanceUID": "1.2.840.113619.6.475.95446471235669803692041504590445110453"
                }
            ],
            "RepetitionTime": 1800.0,
            "Rows": 128,
            "SAR": 0.0740426,
            "SamplesPerPixel": 1,
            "ScanOptions": [
                "SAT_GEMS",
                "EDR_GEMS",
                "MP_GEMS",
                "EPI_GEMS",
                "HYPERBAND_GEMS",
                "FS"
            ],
            "ScanningSequence": [
                "EP",
                "GR"
            ],
            "SequenceVariant": "SS",
            "SeriesDescription": "EPI FM pepolar=1",
            "SeriesNumber": 11,
            "SeriesTime": "083910",
            "SliceThickness": 2.5,
            "SmallestImagePixelValue": 0,
            "SoftwareVersions": [
                "28",
                "LX",
                "MR Software release:RX28.0_R05_2035.a"
            ],
            "SpacingBetweenSlices": 2.5,
            "SpecificCharacterSet": "ISO_IR 100",
            "StackID": "1",
            "StudyID": "1312",
            "StudyTime": "075904",
            "TriggerWindow": 0,
            "VariableFlipAngleFlag": "N"
        },
        "slices": {
            "InstanceNumber": [
                1,
                2,
                3,
                4,
                5,
                6,
                7,
                8,
                9,
                10,
                11,
                12,
                13,
                14,
                15,
                16,
                17,
                18,
                19,
                20,
                21,
                22,
                23,
                24,
                25,
                26,
                27,
                28,
                29,
                30,
                31,
                32,
                33,
                34,
                35,
                36,
                37,
                38,
                39,
                40,
                41,
                42,
                43,
                44,
                45,
                46,
                47,
                48,
                49,
                50,
                51,
                52,
                53,
                54,
                55,
                56,
                57,
                58,
                59,
                60,
                61,
                62,
                63,
                64,
                65,
                66,
                67,
                68,
                69,
                70,
                71,
                72,
                73,
                74,
                75,
                76,
                77,
                78,
                79,
                80,
                81,
                82,
                83,
                84,
                85,
                86,
                87,
                88,
                89,
                90,
                91,
                92,
                93,
                94,
                95,
                96,
                97,
                98,
                99,
                100,
                101,
                102,
                103,
                104,
                105,
                106,
                107,
                108,
                109,
                110,
                111,
                112,
                113,
                114,
                115,
                116,
                117,
                118,
                119,
                120,
                121,
                122,
                123,
                124,
                125,
                126,
                127,
                128,
                129,
                130,
                131,
                132,
                133,
                134,
                135,
                136,
                137,
                138,
                139,
                140,
                141,
                142,
                143,
                144,
                145,
                146,
                147,
                148,
                149,
                150,
                151,
                152,
                153,
                154,
                155,
                156,
                157,
                158,
                159,
                160,
                161,
                162,
                163,
                164,
                165,
                166,
                167,
                168,
                169,
                170,
                171,
                172,
                173,
                174,
                175,
                176,
                177,
                178,
                179,
                180,
                181,
                182,
                183,
                184,
                185,
                186,
                187,
                188,
                189,
                190,
                191,
                192,
                193,
                194,
                195,
                196,
                197,
                198,
                199,
                200,
                201,
                202,
                203,
                204,
                205,
                206,
                207,
                208,
                209,
                210,
                211,
                212,
                213,
                214,
                215,
                216,
                217,
                218,
                219,
                220,
                221,
                222,
                223,
                224,
                225,
                226,
                227,
                228,
                229,
                230,
                231,
                232,
                233,
                234,
                235,
                236,
                237,
                238,
                239,
                240,
                241,
                242,
                243,
                244,
                245,
                246,
                247,
                248,
                249,
                250,
                251,
                252,
                253,
                254,
                255,
                256,
                257,
                258,
                259,
                260,
                261,
                262,
                263,
                264,
                265,
                266,
                267,
                268,
                269,
                270,
                271,
                272,
                273,
                274,
                275,
                276,
                277,
                278,
                279,
                280,
                281,
                282,
                283,
                284,
                285,
                286,
                287,
                288
            ],
            "LargestImagePixelValue": [
                4958,
                4479,
                5815,
                5485,
                5898,
                5657,
                6086,
                5891,
                6754,
                6455,
                7422,
                7820,
                7695,
                7596,
                9124,
                7507,
                8006,
                7391,
                8973,
                7978,
                9573,
                9263,
                9655,
                9734,
                11414,
                9753,
                11900,
                9802,
                9734,
                10996,
                11152,
                10674,
                12372,
                13327,
                12913,
                12037,
                12553,
                12061,
                13502,
                14613,
                13785,
                13362,
                13577,
                12560,
                12153,
                12112,
                12266,
                11033,
                4511,
                4520,
                4391,
                4297,
                4519,
                4645,
                4661,
                4857,
                5138,
                5254,
                6026,
                6063,
                5613,
                6061,
                7249,
                5807,
                6439,
                6046,
                7157,
                6700,
                7654,
                7514,
                7469,
                7701,
                8300,
                7689,
                9383,
                7778,
                7539,
                8853,
                9445,
                8440,
                9828,
                11207,
                10628,
                10295,
                9854,
                10280,
                10897,
                12413,
                11885,
                11158,
                11012,
                10609,
                10323,
                10619,
                11545,
                9646,
                4832,
                4343,
                4103,
                4261,
                4275,
                4258,
                4410,
                4708,
                4758,
                4931,
                5715,
                5641,
                5358,
                5694,
                6731,
                5979,
                6059,
                5906,
                6676,
                6094,
                7136,
                7049,
                6921,
                7182,
                7313,
                7049,
                8691,
                7323,
                7140,
                8302,
                8695,
                7985,
                9122,
                9728,
                9885,
                9632,
                9193,
                9789,
                10272,
                11329,
                11174,
                10878,
                10640,
                10071,
                9757,
                10010,
                9748,
                9048,
                4840,
                4412,
                4142,
                4019,
                4107,
                4204,
                4357,
                4625,
                4636,
                4901,
                5558,
                5317,
                5237,
                5361,
                6559,
                5795,
                5849,
                5822,
                6494,
                5836,
                6878,
                6750,
                6773,
                6962,
                7226,
                7149,
                8448,
                7276,
                6840,
                8106,
                8311,
                7628,
                8867,
                10092,
                9762,
                9282,
                8970,
                9572,
                10003,
                11366,
                10984,
                10637,
                10333,
                9839,
                9458,
                9871,
                10652,
                9110,
                4467,
                4234,
                4106,
                4112,
                3961,
                4196,
                4269,
                4581,
                4668,
                4962,
                5471,
                5628,
                5128,
                5253,
                5487,
                5677,
                5709,
                5839,
                6044,
                5977,
                6806,
                6292,
                6697,
                6930,
                7150,
                6766,
                8319,
                7213,
                6986,
                8062,
                8121,
                7589,
                8697,
                9873,
                9612,
                8960,
                8916,
                9497,
                9820,
                11163,
                10814,
                10400,
                9933,
                9634,
                9410,
                9753,
                10650,
                9270,
                4132,
                4034,
                4123,
                4046,
                3927,
                4129,
                4261,
                4562,
                4632,
                4882,
                5351,
                5664,
                5177,
                5706,
                6394,
                5717,
                5801,
                5805,
                6386,
                5695,
                6919,
                6581,
                6652,
                6993,
                7115,
                6976,
                7863,
                7160,
                6766,
                8125,
                7840,
                7573,
                8758,
                9678,
                9649,
                9091,
                8925,
                9514,
                9785,
                11074,
                10622,
                10164,
                10119,
                9823,
                9502,
                9846,
                10648,
                8969
            ],
            "TriggerTime": [
                75.0,
                975.0,
                150.0,
                1050.0,
                225.0,
                1125.0,
                300.0,
                1200.0,
                375.0,
                1275.0,
                450.0,
                1350.0,
                525.0,
                1425.0,
                600.0,
                1500.0,
                675.0,
                1575.0,
                750.0,
                1650.0,
                825.0,
                1800.0,
                900.0,
                1725.0,
                75.0,
                975.0,
                150.0,
                1050.0,
                225.0,
                1125.0,
                300.0,
                1200.0,
                375.0,
                1275.0,
                450.0,
                1350.0,
                525.0,
                1425.0,
                600.0,
                1500.0,
                675.0,
                1575.0,
                750.0,
                1650.0,
                825.0,
                1800.0,
                900.0,
                1725.0,
                1875.0,
                2775.0,
                1950.0,
                2850.0,
                2025.0,
                2925.0,
                2100.0,
                3000.0,
                2175.0,
                3075.0,
                2250.0,
                3150.0,
                2325.0,
                3225.0,
                2400.0,
                3300.0,
                2475.0,
                3375.0,
                2550.0,
                3450.0,
                2625.0,
                3600.0,
                2700.0,
                3525.0,
                1875.0,
                2775.0,
                1950.0,
                2850.0,
                2025.0,
                2925.0,
                2100.0,
                3000.0,
                2175.0,
                3075.0,
                2250.0,
                3150.0,
                2325.0,
                3225.0,
                2400.0,
                3300.0,
                2475.0,
                3375.0,
                2550.0,
                3450.0,
                2625.0,
                3600.0,
                2700.0,
                3525.0,
                3675.0,
                4575.0,
                3750.0,
                4650.0,
                3825.0,
                4725.0,
                3900.0,
                4800.0,
                3975.0,
                4875.0,
                4050.0,
                4950.0,
                4125.0,
                5025.0,
                4200.0,
                5100.0,
                4275.0,
                5175.0,
                4350.0,
                5250.0,
                4425.0,
                5400.0,
                4500.0,
                5325.0,
                3675.0,
                4575.0,
                3750.0,
                4650.0,
                3825.0,
                4725.0,
                3900.0,
                4800.0,
                3975.0,
                4875.0,
                4050.0,
                4950.0,
                4125.0,
                5025.0,
                4200.0,
                5100.0,
                4275.0,
                5175.0,
                4350.0,
                5250.0,
                4425.0,
                5400.0,
                4500.0,
                5325.0,
                5475.0,
                6375.0,
                5550.0,
                6450.0,
                5625.0,
                6525.0,
                5700.0,
                6600.0,
                5775.0,
                6675.0,
                5850.0,
                6750.0,
                5925.0,
                6825.0,
                6000.0,
                6900.0,
                6075.0,
                6975.0,
                6150.0,
                7050.0,
                6225.0,
                7200.0,
                6300.0,
                7125.0,
                5475.0,
                6375.0,
                5550.0,
                6450.0,
                5625.0,
                6525.0,
                5700.0,
                6600.0,
                5775.0,
                6675.0,
                5850.0,
                6750.0,
                5925.0,
                6825.0,
                6000.0,
                6900.0,
                6075.0,
                6975.0,
                6150.0,
                7050.0,
                6225.0,
                7200.0,
                6300.0,
                7125.0,
                7275.0,
                8175.0,
                7350.0,
                8250.0,
                7425.0,
                8325.0,
                7500.0,
                8400.0,
                7575.0,
                8475.0,
                7650.0,
                8550.0,
                7725.0,
                8625.0,
                7800.0,
                8700.0,
                7875.0,
                8775.0,
                7950.0,
                8850.0,
                8025.0,
                9000.0,
                8100.0,
                8925.0,
                7275.0,
                8175.0,
                7350.0,
                8250.0,
                7425.0,
                8325.0,
                7500.0,
                8400.0,
                7575.0,
                8475.0,
                7650.0,
                8550.0,
                7725.0,
                8625.0,
                7800.0,
                8700.0,
                7875.0,
                8775.0,
                7950.0,
                8850.0,
                8025.0,
                9000.0,
                8100.0,
                8925.0,
                9075.0,
                9975.0,
                9150.0,
                10050.0,
                9225.0,
                10125.0,
                9300.0,
                10200.0,
                9375.0,
                10275.0,
                9450.0,
                10350.0,
                9525.0,
                10425.0,
                9600.0,
                10500.0,
                9675.0,
                10575.0,
                9750.0,
                10650.0,
                9825.0,
                10800.0,
                9900.0,
                10725.0,
                9075.0,
                9975.0,
                9150.0,
                10050.0,
                9225.0,
                10125.0,
                9300.0,
                10200.0,
                9375.0,
                10275.0,
                9450.0,
                10350.0,
                9525.0,
                10425.0,
                9600.0,
                10500.0,
                9675.0,
                10575.0,
                9750.0,
                10650.0,
                9825.0,
                10800.0,
                9900.0,
                10725.0
            ],
            "WindowCenter": [
                2974.0,
                2687.0,
                3489.0,
                3291.0,
                3538.0,
                3394.0,
                3651.0,
                3534.0,
                4052.0,
                3873.0,
                4453.0,
                4692.0,
                4617.0,
                4557.0,
                5474.0,
                4504.0,
                4803.0,
                4434.0,
                5383.0,
                4786.0,
                5743.0,
                5557.0,
                5793.0,
                5840.0,
                6848.0,
                5851.0,
                7140.0,
                5881.0,
                5840.0,
                6597.0,
                6691.0,
                6404.0,
                7423.0,
                7996.0,
                7747.0,
                7222.0,
                7531.0,
                7236.0,
                8101.0,
                8767.0,
                8271.0,
                8017.0,
                8146.0,
                7536.0,
                7291.0,
                7267.0,
                7359.0,
                6619.0,
                2706.0,
                2712.0,
                2634.0,
                2578.0,
                2711.0,
                2787.0,
                2796.0,
                2914.0,
                3082.0,
                3152.0,
                3615.0,
                3637.0,
                3367.0,
                3636.0,
                4349.0,
                3484.0,
                3863.0,
                3627.0,
                4294.0,
                4020.0,
                4592.0,
                4508.0,
                4481.0,
                4620.0,
                4980.0,
                4613.0,
                5629.0,
                4666.0,
                4523.0,
                5311.0,
                5667.0,
                5064.0,
                5896.0,
                6724.0,
                6376.0,
                6177.0,
                5912.0,
                6168.0,
                6538.0,
                7447.0,
                7131.0,
                6694.0,
                6607.0,
                6365.0,
                6193.0,
                6371.0,
                6927.0,
                5787.0,
                2899.0,
                2605.0,
                2461.0,
                2556.0,
                2565.0,
                2554.0,
                2646.0,
                2824.0,
                2854.0,
                2958.0,
                3429.0,
                3384.0,
                3214.0,
                3416.0,
                4038.0,
                3587.0,
                3635.0,
                3543.0,
                4005.0,
                3656.0,
                4281.0,
                4229.0,
                4152.0,
                4309.0,
                4387.0,
                4229.0,
                5214.0,
                4393.0,
                4284.0,
                4981.0,
                5217.0,
                4791.0,
                5473.0,
                5836.0,
                5931.0,
                5779.0,
                5515.0,
                5873.0,
                6163.0,
                6797.0,
                6704.0,
                6526.0,
                6384.0,
                6042.0,
                5854.0,
                6006.0,
