{
    "AcquisitionMatrixPE": 88,
    "AcquisitionNumber": 1,
    "AcquisitionTime": "16:12:25.000000",
    "BodyPartExamined": "BRAIN",
    "CoilString": "48HAP",
    "ConversionSoftware": "dcm2niix",
    "ConversionSoftwareVersion": "v1.0.20190410  GCC6.3.0",
    "DeviceSerialNumber": "0000000319335MR2",
    "EchoTime": 0.03,
    "EffectiveEchoSpacing": 0.000564,
    "FlipAngle": 75,
    "ImageOrientationPatientDICOM": [
        1,
        0,
        0,
        0,
        0.989778,
        -0.142619
    ],
    "ImageType": [
        "ORIGINAL",
        "PRIMARY",
        "OTHER"
    ],
    "ImagingFrequency": 127.754,
    "InPlanePhaseEncodingDirectionDICOM": "COL",
    "InstitutionName": "Iowa_MRRF",
    "IntendedFor": [
        "func/sub-10042_task-ThalHi_run-005_bold.nii.gz",
        "func/sub-10042_task-ThalHi_run-006_bold.nii.gz",
        "func/sub-10042_task-ThalHi_run-007_bold.nii.gz",
        "func/sub-10042_task-ThalHi_run-008_bold.nii.gz"
    ],
    "MRAcquisitionType": "2D",
    "MagneticFieldStrength": 3,
    "Manufacturer": "GE",
    "ManufacturersModelName": "SIGNA_Premier",
    "Modality": "MR",
    "PatientPosition": "HFS",
    "PercentPhaseFOV": 100,
    "PhaseEncodingDirection": "j",
    "PhaseEncodingPolarityGE": "Flipped",
    "PixelBandwidth": 3906.25,
    "ProcedureStepDescription": "HWANG_NET",
    "ProtocolName": "EPI_FM_pepolar=0",
    "ReconMatrixPE": 128,
    "RepetitionTime": 1.8,
    "SAR": 0.0752435,
    "ScanOptions": "SAT_GEMS_EDR_GEMS_MP_GEMS_EPI_GEMS_HYPERBAND_GEMS_FS",
    "ScanningSequence": "EP_GR",
    "SequenceVariant": "SS",
    "SeriesDescription": "EPI_FM_pepolar=0",
    "SeriesNumber": 10,
    "SliceThickness": 2.5,
    "SliceTiming": [
        0,
        0.9,
        0.075,
        0.975,
        0.15,
        1.05,
        0.225,
        1.125,
        0.3,
        1.2,
        0.375,
        1.275,
        0.45,
        1.35,
        0.525,
        1.425,
        0.6,
        1.5,
        0.675,
        1.575,
        0.75,
        1.725,
        0.825,
        1.65,
        0,
        0.9,
        0.075,
        0.975,
        0.15,
        1.05,
        0.225,
        1.125,
        0.3,
        1.2,
        0.375,
        1.275,
        0.45,
        1.35,
        0.525,
        1.425,
        0.6,
        1.5,
        0.675,
        1.575,
        0.75,
        1.725,
        0.825,
        1.65
    ],
    "SoftwareVersions": "28_LX_MR_Software_release:RX28.0_R05_2035.a",
    "SpacingBetweenSlices": 2.5,
    "StationName": "Iowa3T",
    "TotalReadoutTime": 0.071628,
    "TriggerDelayTime": 10650,
    "dcmmeta_affine": [
        [
            -1.7187999486923218,
            0.0,
            0.0,
            107.76046752929688
        ],
        [
            0.0,
            1.7012299299240112,
            -0.35654449462890625,
            -107.7372055053711
        ],
        [
            0.0,
            0.24513335525989532,
            2.4744415283203125,
            -54.781211853027344
        ],
        [
            0.0,
            0.0,
            0.0,
            1.0
        ]
    ],
    "dcmmeta_reorient_transform": [
        [
            0.0,
            -1.0,
            0.0,
            127.0
        ],
        [
            1.0,
            0.0,
            0.0,
            0.0
        ],
        [
            0.0,
            0.0,
            -1.0,
            47.0
        ],
        [
            0.0,
            0.0,
            0.0,
            1.0
        ]
    ],
    "dcmmeta_shape": [
        128,
        128,
        48,
        6
    ],
    "dcmmeta_slice_dim": 2,
    "dcmmeta_version": 0.6,
    "global": {
        "const": {
            "AcquisitionMatrix": [
                88,
                0,
                0,
                88
            ],
            "AcquisitionNumber": 1,
            "AcquisitionTime": "161225",
            "AnatomicRegionSequence": [
                {
                    "CodeMeaning": "Brain",
                    "CodeValue": "T-A0100",
                    "CodingSchemeDesignator": "SRT"
                }
            ],
            "AngioFlag": "N",
            "BeatRejectionFlag": "Y",
            "BitsAllocated": 16,
            "BitsStored": 16,
            "BodyPartExamined": "BRAIN",
            "CardiacNumberOfImages": 0,
            "Columns": 128,
            "ContentTime": "161225",
            "EchoNumbers": 1,
            "EchoTime": 30.0,
            "EchoTrainLength": 1,
            "FlipAngle": 75.0,
            "GroupLength_0X40_0X0": 98,
            "GroupLength_0X7FE0_0X0": 32780,
            "HeartRate": 0,
            "HighBit": 15,
            "ImageType": [
                "ORIGINAL",
                "PRIMARY",
                "OTHER"
            ],
            "ImagedNucleus": "1H",
            "ImagesInAcquisition": 288,
            "ImagingFrequency": 127.753705,
            "InPlanePhaseEncodingDirection": "COL",
            "MRAcquisitionType": "2D",
            "MagneticFieldStrength": 3.0,
            "Manufacturer": "GE MEDICAL SYSTEMS",
            "ManufacturerModelName": "SIGNA Premier",
            "Modality": "MR",
            "NumberOfAverages": 1.0,
            "NumberOfTemporalPositions": 6,
            "PercentPhaseFieldOfView": 100.0,
            "PercentSampling": 100.0,
            "PerformedLocation": "Iowa",
            "PerformedProcedureStepStartTime": "153209",
            "PhotometricInterpretation": "MONOCHROME2",
            "PixelBandwidth": 3906.25,
            "PixelRepresentation": 1,
            "PixelSpacing": [
                1.7188,
                1.7188
            ],
            "ProtocolName": "HWANG_NET_THALHI",
            "ReceiveCoilName": "48HAP",
            "ReconstructionDiameter": 220.0,
            "ReferencedPerformedProcedureStepSequence": [
                {
                    "ReferencedSOPClassUID": "1.2.840.10008.3.1.2.3.3",
                    "ReferencedSOPInstanceUID": "1.2.840.113619.6.475.109754585391393281594502702282932671037"
                }
            ],
            "RepetitionTime": 1800.0,
            "Rows": 128,
            "SAR": 0.0752435,
            "SamplesPerPixel": 1,
            "ScanOptions": [
                "SAT_GEMS",
                "EDR_GEMS",
                "MP_GEMS",
                "EPI_GEMS",
                "HYPERBAND_GEMS",
                "FS"
            ],
            "ScanningSequence": [
                "EP",
                "GR"
            ],
            "SequenceVariant": "SS",
            "SeriesDescription": "EPI FM pepolar=0",
            "SeriesNumber": 10,
            "SeriesTime": "161225",
            "SliceThickness": 2.5,
            "SmallestImagePixelValue": 0,
            "SoftwareVersions": [
                "28",
                "LX",
                "MR Software release:RX28.0_R05_2035.a"
            ],
            "SpacingBetweenSlices": 2.5,
            "SpecificCharacterSet": "ISO_IR 100",
            "StackID": "1",
            "StudyID": "1574",
            "StudyTime": "153215",
            "TriggerWindow": 0,
            "VariableFlipAngleFlag": "N"
        },
        "slices": {
            "InstanceNumber": [
                1,
                2,
                3,
                4,
                5,
                6,
                7,
                8,
                9,
                10,
                11,
                12,
                13,
                14,
                15,
                16,
                17,
                18,
                19,
                20,
                21,
                22,
                23,
                24,
                25,
                26,
                27,
                28,
                29,
                30,
                31,
                32,
                33,
                34,
                35,
                36,
                37,
                38,
                39,
                40,
                41,
                42,
                43,
                44,
                45,
                46,
                47,
                48,
                49,
                50,
                51,
                52,
                53,
                54,
                55,
                56,
                57,
                58,
                59,
                60,
                61,
                62,
                63,
                64,
                65,
                66,
                67,
                68,
                69,
                70,
                71,
                72,
                73,
                74,
                75,
                76,
                77,
                78,
                79,
                80,
                81,
                82,
                83,
                84,
                85,
                86,
                87,
                88,
                89,
                90,
                91,
                92,
                93,
                94,
                95,
                96,
                97,
                98,
                99,
                100,
                101,
                102,
                103,
                104,
                105,
                106,
                107,
                108,
                109,
                110,
                111,
                112,
                113,
                114,
                115,
                116,
                117,
                118,
                119,
                120,
                121,
                122,
                123,
                124,
                125,
                126,
                127,
                128,
                129,
                130,
                131,
                132,
                133,
                134,
                135,
                136,
                137,
                138,
                139,
                140,
                141,
                142,
                143,
                144,
                145,
                146,
                147,
                148,
                149,
                150,
                151,
                152,
                153,
                154,
                155,
                156,
                157,
                158,
                159,
                160,
                161,
                162,
                163,
                164,
                165,
                166,
                167,
                168,
                169,
                170,
                171,
                172,
                173,
                174,
                175,
                176,
                177,
                178,
                179,
                180,
                181,
                182,
                183,
                184,
                185,
                186,
                187,
                188,
                189,
                190,
                191,
                192,
                193,
                194,
                195,
                196,
                197,
                198,
                199,
                200,
                201,
                202,
                203,
                204,
                205,
                206,
                207,
                208,
                209,
                210,
                211,
                212,
                213,
                214,
                215,
                216,
                217,
                218,
                219,
                220,
                221,
                222,
                223,
                224,
                225,
                226,
                227,
                228,
                229,
                230,
                231,
                232,
                233,
                234,
                235,
                236,
                237,
                238,
                239,
                240,
                241,
                242,
                243,
                244,
                245,
                246,
                247,
                248,
                249,
                250,
                251,
                252,
                253,
                254,
                255,
                256,
                257,
                258,
                259,
                260,
                261,
                262,
                263,
                264,
                265,
                266,
                267,
                268,
                269,
                270,
                271,
                272,
                273,
                274,
                275,
                276,
                277,
                278,
                279,
                280,
                281,
                282,
                283,
                284,
                285,
                286,
                287,
                288
            ],
            "LargestImagePixelValue": [
                5491,
                4444,
                5276,
                4711,
                5465,
                5573,
                5018,
                5287,
                5095,
                4896,
                5415,
                5644,
                5354,
                5345,
                5721,
                5231,
                5818,
                5263,
                5744,
                5598,
                5943,
                6000,
                6249,
                6256,
                6909,
                6474,
                7311,
                7068,
                7864,
                7681,
                7701,
                8283,
                8556,
                8752,
                8025,
                8161,
                7992,
                8067,
                8191,
                8797,
                8543,
                8496,
                7968,
                7667,
                8121,
                8915,
                10066,
                9674,
                4569,
                3999,
                4352,
                3807,
                4668,
                4948,
                4174,
                4536,
                4030,
                4177,
                4254,
                4699,
                4418,
                4388,
                4399,
                4284,
                4512,
                4409,
                4537,
                4958,
                4920,
                5291,
                5297,
                5082,
                5511,
                5604,
                5742,
                5955,
                6283,
                6865,
                6732,
                7334,
                8266,
                7815,
                7057,
                7422,
                7138,
                6877,
                6670,
                7476,
                7326,
                7203,
                6813,
                6707,
                7408,
                7612,
                8686,
                8539,
                4913,
                3583,
                3799,
                3488,
                4443,
                4699,
                4107,
                4183,
                4340,
                4143,
                4093,
                4435,
                4110,
                4160,
                4432,
                4060,
                4356,
                4238,
                4495,
                4723,
                4629,
                4987,
                5185,
                4855,
                5236,
                5440,
                5473,
                5708,
                5955,
                6621,
                6336,
                7012,
                7905,
                7476,
                6733,
                7057,
                6837,
                6709,
                6426,
                7011,
                6756,
                6741,
                6402,
                6379,
                6896,
                7351,
                8143,
                8148,
                5778,
                3586,
                4009,
                3449,
                3969,
                4440,
                3745,
                3952,
                3845,
                4101,
                4090,
                4446,
                4129,
                4100,
                4304,
                4045,
                4259,
                4142,
                4278,
                4452,
                4637,
                4893,
                5105,
                4864,
                5139,
                5325,
                5312,
                5415,
                5903,
                6516,
                6184,
                6898,
                7773,
                7273,
                6648,
                6901,
                6706,
                6473,
                6274,
                6928,
                6683,
                6576,
                6362,
                6259,
                6812,
                7123,
                7905,
                7981,
                4159,
                3885,
                3725,
                3485,
                4028,
                4440,
                3825,
                3929,
                3826,
                4068,
                4086,
                4381,
                4112,
                4084,
                4282,
                3975,
                4306,
                4145,
                4238,
                4653,
                4578,
                4879,
                5132,
                4976,
                5140,
                5369,
                5348,
                5330,
                5749,
                6377,
                6134,
                6828,
                7714,
                7301,
                6616,
                6823,
                6662,
                6549,
                6173,
                6795,
                6686,
                6537,
                6214,
                6232,
                6722,
                7165,
                7860,
                7910,
                3687,
                3838,
                3611,
                3483,
                3957,
                4376,
                3744,
                4001,
                3851,
                4048,
                4073,
                4394,
                4077,
                4043,
                4237,
                3977,
                4227,
                4134,
                4236,
                4625,
                4546,
                4871,
                5075,
                5013,
                5161,
                5311,
                5368,
                5618,
                5776,
                6420,
                6100,
                6824,
                7013,
                7176,
                6322,
                6772,
                6610,
                6384,
                6219,
                6829,
                6644,
                6555,
                6254,
                6232,
                6690,
                7129,
                7862,
                7907
            ],
            "TriggerTime": [
                75.0,
                975.0,
                150.0,
                1050.0,
                225.0,
                1125.0,
                300.0,
                1200.0,
                375.0,
                1275.0,
                450.0,
                1350.0,
                525.0,
                1425.0,
                600.0,
                1500.0,
                675.0,
                1575.0,
                750.0,
                1650.0,
                825.0,
                1800.0,
                900.0,
                1725.0,
                75.0,
                975.0,
                150.0,
                1050.0,
                225.0,
                1125.0,
                300.0,
                1200.0,
                375.0,
                1275.0,
                450.0,
                1350.0,
                525.0,
                1425.0,
                600.0,
                1500.0,
                675.0,
                1575.0,
                750.0,
                1650.0,
                825.0,
                1800.0,
                900.0,
                1725.0,
                1875.0,
                2775.0,
                1950.0,
                2850.0,
                2025.0,
                2925.0,
                2100.0,
                3000.0,
                2175.0,
                3075.0,
                2250.0,
                3150.0,
                2325.0,
                3225.0,
                2400.0,
                3300.0,
                2475.0,
                3375.0,
                2550.0,
                3450.0,
                2625.0,
                3600.0,
                2700.0,
                3525.0,
                1875.0,
                2775.0,
                1950.0,
                2850.0,
                2025.0,
                2925.0,
                2100.0,
                3000.0,
                2175.0,
                3075.0,
                2250.0,
                3150.0,
                2325.0,
                3225.0,
                2400.0,
                3300.0,
                2475.0,
                3375.0,
                2550.0,
                3450.0,
                2625.0,
                3600.0,
                2700.0,
                3525.0,
                3675.0,
                4575.0,
                3750.0,
                4650.0,
                3825.0,
                4725.0,
                3900.0,
                4800.0,
                3975.0,
                4875.0,
                4050.0,
                4950.0,
                4125.0,
                5025.0,
                4200.0,
                5100.0,
                4275.0,
                5175.0,
                4350.0,
                5250.0,
                4425.0,
                5400.0,
                4500.0,
                5325.0,
                3675.0,
                4575.0,
                3750.0,
                4650.0,
                3825.0,
                4725.0,
                3900.0,
                4800.0,
                3975.0,
                4875.0,
                4050.0,
                4950.0,
                4125.0,
                5025.0,
                4200.0,
                5100.0,
                4275.0,
                5175.0,
                4350.0,
                5250.0,
                4425.0,
                5400.0,
                4500.0,
                5325.0,
                5475.0,
                6375.0,
                5550.0,
                6450.0,
                5625.0,
                6525.0,
                5700.0,
                6600.0,
                5775.0,
                6675.0,
                5850.0,
                6750.0,
                5925.0,
                6825.0,
                6000.0,
                6900.0,
                6075.0,
                6975.0,
                6150.0,
                7050.0,
                6225.0,
                7200.0,
                6300.0,
                7125.0,
                5475.0,
                6375.0,
                5550.0,
                6450.0,
                5625.0,
                6525.0,
                5700.0,
                6600.0,
                5775.0,
                6675.0,
                5850.0,
                6750.0,
                5925.0,
                6825.0,
                6000.0,
                6900.0,
                6075.0,
                6975.0,
                6150.0,
                7050.0,
                6225.0,
                7200.0,
                6300.0,
                7125.0,
                7275.0,
                8175.0,
                7350.0,
                8250.0,
                7425.0,
                8325.0,
                7500.0,
                8400.0,
                7575.0,
                8475.0,
                7650.0,
                8550.0,
                7725.0,
                8625.0,
                7800.0,
                8700.0,
                7875.0,
                8775.0,
                7950.0,
                8850.0,
                8025.0,
                9000.0,
                8100.0,
                8925.0,
                7275.0,
                8175.0,
                7350.0,
                8250.0,
                7425.0,
                8325.0,
                7500.0,
                8400.0,
                7575.0,
                8475.0,
                7650.0,
                8550.0,
                7725.0,
                8625.0,
                7800.0,
                8700.0,
                7875.0,
                8775.0,
                7950.0,
                8850.0,
                8025.0,
                9000.0,
                8100.0,
                8925.0,
                9075.0,
                9975.0,
                9150.0,
                10050.0,
                9225.0,
                10125.0,
                9300.0,
                10200.0,
                9375.0,
                10275.0,
                9450.0,
                10350.0,
                9525.0,
                10425.0,
                9600.0,
                10500.0,
                9675.0,
                10575.0,
                9750.0,
                10650.0,
                9825.0,
                10800.0,
                9900.0,
                10725.0,
                9075.0,
                9975.0,
                9150.0,
                10050.0,
                9225.0,
                10125.0,
                9300.0,
                10200.0,
                9375.0,
                10275.0,
                9450.0,
                10350.0,
                9525.0,
                10425.0,
                9600.0,
                10500.0,
                9675.0,
                10575.0,
                9750.0,
                10650.0,
                9825.0,
                10800.0,
                9900.0,
                10725.0
            ],
            "WindowCenter": [
                3294.0,
                2666.0,
                3165.0,
                2826.0,
                3279.0,
                3343.0,
                3010.0,
                3172.0,
                3057.0,
                2937.0,
                3249.0,
                3386.0,
                3212.0,
                3207.0,
                3432.0,
                3138.0,
                3490.0,
                3157.0,
                3446.0,
                3358.0,
                3565.0,
                3600.0,
                3749.0,
                3753.0,
                4145.0,
                3884.0,
                4386.0,
                4240.0,
                4718.0,
                4608.0,
                4620.0,
                4969.0,
                5133.0,
                5251.0,
                4815.0,
                4896.0,
                4795.0,
                4840.0,
                4914.0,
                5278.0,
                5125.0,
                5097.0,
                4780.0,
                4600.0,
                4872.0,
                5349.0,
                6039.0,
                5804.0,
                2741.0,
                2399.0,
                2611.0,
                2284.0,
                2800.0,
                2968.0,
                2504.0,
                2721.0,
                2418.0,
                2506.0,
                2552.0,
                2819.0,
                2650.0,
                2632.0,
                2639.0,
                2570.0,
                2707.0,
                2645.0,
                2722.0,
                2974.0,
                2952.0,
                3174.0,
                3178.0,
                3049.0,
                3306.0,
                3362.0,
                3445.0,
                3573.0,
                3769.0,
                4119.0,
                4039.0,
                4400.0,
                4959.0,
                4689.0,
                4234.0,
                4453.0,
                4282.0,
                4126.0,
                4002.0,
                4485.0,
                4395.0,
                4321.0,
                4087.0,
                4024.0,
                4444.0,
                4567.0,
                5211.0,
                5123.0,
                2947.0,
                2149.0,
                2279.0,
                2092.0,
                2665.0,
                2819.0,
                2464.0,
                2509.0,
                2604.0,
                2485.0,
                2455.0,
                2661.0,
                2466.0,
                2496.0,
                2659.0,
                2436.0,
                2613.0,
                2542.0,
                2697.0,
                2833.0,
                2777.0,
                2992.0,
                3111.0,
                2913.0,
                3141.0,
                3264.0,
                3283.0,
                3424.0,
                3573.0,
                3972.0,
                3801.0,
                4207.0,
                4743.0,
                4485.0,
                4039.0,
                4234.0,
                4102.0,
                4025.0,
                3855.0,
                4206.0,
                4053.0,
                4044.0,
                3841.0,
                3827.0,
                4137.0,
                4410.0,
                4885.0,
                4888.0,
