{
    "AcquisitionMatrixPE": 88,
    "AcquisitionNumber": 1,
    "AcquisitionTime": "10:20:6.000000",
    "BodyPartExamined": "BRAIN",
    "CoilString": "48HAP",
    "ConversionSoftware": "dcm2niix",
    "ConversionSoftwareVersion": "v1.0.20190410  GCC6.3.0",
    "DeviceSerialNumber": "0000000319335MR2",
    "EchoTime": 0.03,
    "EffectiveEchoSpacing": 0.000564,
    "FlipAngle": 75,
    "ImageOrientationPatientDICOM": [
        1,
        0,
        0,
        0,
        1,
        0
    ],
    "ImageType": [
        "ORIGINAL",
        "PRIMARY",
        "OTHER"
    ],
    "ImagingFrequency": 127.753,
    "InPlanePhaseEncodingDirectionDICOM": "COL",
    "InstitutionName": "Iowa_MRRF",
    "IntendedFor": [
        "func/sub-10179_task-ThalHi_run-005_bold.nii.gz",
        "func/sub-10179_task-ThalHi_run-006_bold.nii.gz",
        "func/sub-10179_task-ThalHi_run-007_bold.nii.gz",
        "func/sub-10179_task-ThalHi_run-008_bold.nii.gz"
    ],
    "MRAcquisitionType": "2D",
    "MagneticFieldStrength": 3,
    "Manufacturer": "GE",
    "ManufacturersModelName": "SIGNA_Premier",
    "Modality": "MR",
    "PatientPosition": "HFS",
    "PercentPhaseFOV": 100,
    "PhaseEncodingDirection": "j",
    "PhaseEncodingPolarityGE": "Flipped",
    "PixelBandwidth": 3906.25,
    "ProcedureStepDescription": "HWANG_NET",
    "ProtocolName": "EPI_FM_pepolar=0",
    "ReconMatrixPE": 128,
    "RepetitionTime": 1.8,
    "SAR": 0.0892462,
    "ScanOptions": "SAT_GEMS_EDR_GEMS_MP_GEMS_EPI_GEMS_HYPERBAND_GEMS_FS",
    "ScanningSequence": "EP_GR",
    "SequenceVariant": "SS",
    "SeriesDescription": "EPI_FM_pepolar=0",
    "SeriesNumber": 11,
    "SliceThickness": 2.5,
    "SliceTiming": [
        0,
        0.9,
        0.075,
        0.975,
        0.15,
        1.05,
        0.225,
        1.125,
        0.3,
        1.2,
        0.375,
        1.275,
        0.45,
        1.35,
        0.525,
        1.425,
        0.6,
        1.5,
        0.675,
        1.575,
        0.75,
        1.725,
        0.825,
        1.65,
        0,
        0.9,
        0.075,
        0.975,
        0.15,
        1.05,
        0.225,
        1.125,
        0.3,
        1.2,
        0.375,
        1.275,
        0.45,
        1.35,
        0.525,
        1.425,
        0.6,
        1.5,
        0.675,
        1.575,
        0.75,
        1.725,
        0.825,
        1.65
    ],
    "SoftwareVersions": "28_LX_MR_Software_release:RX28.0_R05_2035.a",
    "SpacingBetweenSlices": 2.5,
    "StationName": "Iowa3T",
    "TotalReadoutTime": 0.071628,
    "TriggerDelayTime": 10650,
    "dcmmeta_affine": [
        [
            -1.7187999486923218,
            0.0,
            0.0,
            109.73580169677734
        ],
        [
            0.0,
            1.7187999486923218,
            0.0,
            -116.97100067138672
        ],
        [
            0.0,
            0.0,
            2.5,
            -28.759597778320312
        ],
        [
            0.0,
            0.0,
            0.0,
            1.0
        ]
    ],
    "dcmmeta_reorient_transform": [
        [
            0.0,
            -1.0,
            0.0,
            127.0
        ],
        [
            1.0,
            0.0,
            0.0,
            0.0
        ],
        [
            0.0,
            0.0,
            -1.0,
            47.0
        ],
        [
            0.0,
            0.0,
            0.0,
            1.0
        ]
    ],
    "dcmmeta_shape": [
        128,
        128,
        48,
        6
    ],
    "dcmmeta_slice_dim": 2,
    "dcmmeta_version": 0.6,
    "global": {
        "const": {
            "AcquisitionMatrix": [
                88,
                0,
                0,
                88
            ],
            "AcquisitionNumber": 1,
            "AcquisitionTime": "102006",
            "AnatomicRegionSequence": [
                {
                    "CodeMeaning": "Brain",
                    "CodeValue": "T-A0100",
                    "CodingSchemeDesignator": "SRT"
                }
            ],
            "AngioFlag": "N",
            "BeatRejectionFlag": "Y",
            "BitsAllocated": 16,
            "BitsStored": 16,
            "BodyPartExamined": "BRAIN",
            "CardiacNumberOfImages": 0,
            "Columns": 128,
            "ContentTime": "102006",
            "EchoNumbers": 1,
            "EchoTime": 30.0,
            "EchoTrainLength": 1,
            "FlipAngle": 75.0,
            "GroupLength_0X40_0X0": 98,
            "GroupLength_0X7FE0_0X0": 32780,
            "HeartRate": 0,
            "HighBit": 15,
            "ImageOrientationPatient": [
                1.0,
                -0.0,
                0.0,
                -0.0,
                1.0,
                0.0
            ],
            "ImageType": [
                "ORIGINAL",
                "PRIMARY",
                "OTHER"
            ],
            "ImagedNucleus": "1H",
            "ImagesInAcquisition": 288,
            "ImagingFrequency": 127.753448,
            "InPlanePhaseEncodingDirection": "COL",
            "MRAcquisitionType": "2D",
            "MagneticFieldStrength": 3.0,
            "Manufacturer": "GE MEDICAL SYSTEMS",
            "ManufacturerModelName": "SIGNA Premier",
            "Modality": "MR",
            "NumberOfAverages": 1.0,
            "NumberOfTemporalPositions": 6,
            "PercentPhaseFieldOfView": 100.0,
            "PercentSampling": 100.0,
            "PerformedLocation": "Iowa",
            "PerformedProcedureStepStartTime": "093216",
            "PhotometricInterpretation": "MONOCHROME2",
            "PixelBandwidth": 3906.25,
            "PixelRepresentation": 1,
            "PixelSpacing": [
                1.7188,
                1.7188
            ],
            "ProtocolName": "HWANG_NET_THALHI",
            "ReceiveCoilName": "48HAP",
            "ReconstructionDiameter": 220.0,
            "ReferencedPerformedProcedureStepSequence": [
                {
                    "ReferencedSOPClassUID": "1.2.840.10008.3.1.2.3.3",
                    "ReferencedSOPInstanceUID": "1.2.840.113619.6.475.336552098112030740910766712116506039706"
                }
            ],
            "RepetitionTime": 1800.0,
            "Rows": 128,
            "SAR": 0.0892462,
            "SamplesPerPixel": 1,
            "ScanOptions": [
                "SAT_GEMS",
                "EDR_GEMS",
                "MP_GEMS",
                "EPI_GEMS",
                "HYPERBAND_GEMS",
                "FS"
            ],
            "ScanningSequence": [
                "EP",
                "GR"
            ],
            "SequenceVariant": "SS",
            "SeriesDescription": "EPI FM pepolar=0",
            "SeriesNumber": 11,
            "SeriesTime": "102006",
            "SliceThickness": 2.5,
            "SmallestImagePixelValue": 0,
            "SoftwareVersions": [
                "28",
                "LX",
                "MR Software release:RX28.0_R05_2035.a"
            ],
            "SpacingBetweenSlices": 2.5,
            "SpecificCharacterSet": "ISO_IR 100",
            "StackID": "1",
            "StudyID": "2831",
            "StudyTime": "093223",
            "TriggerWindow": 0,
            "VariableFlipAngleFlag": "N"
        },
        "slices": {
            "InstanceNumber": [
                1,
                2,
                3,
                4,
                5,
                6,
                7,
                8,
                9,
                10,
                11,
                12,
                13,
                14,
                15,
                16,
                17,
                18,
                19,
                20,
                21,
                22,
                23,
                24,
                25,
                26,
                27,
                28,
                29,
                30,
                31,
                32,
                33,
                34,
                35,
                36,
                37,
                38,
                39,
                40,
                41,
                42,
                43,
                44,
                45,
                46,
                47,
                48,
                49,
                50,
                51,
                52,
                53,
                54,
                55,
                56,
                57,
                58,
                59,
                60,
                61,
                62,
                63,
                64,
                65,
                66,
                67,
                68,
                69,
                70,
                71,
                72,
                73,
                74,
                75,
                76,
                77,
                78,
                79,
                80,
                81,
                82,
                83,
                84,
                85,
                86,
                87,
                88,
                89,
                90,
                91,
                92,
                93,
                94,
                95,
                96,
                97,
                98,
                99,
                100,
                101,
                102,
                103,
                104,
                105,
                106,
                107,
                108,
                109,
                110,
                111,
                112,
                113,
                114,
                115,
                116,
                117,
                118,
                119,
                120,
                121,
                122,
                123,
                124,
                125,
                126,
                127,
                128,
                129,
                130,
                131,
                132,
                133,
                134,
                135,
                136,
                137,
                138,
                139,
                140,
                141,
                142,
                143,
                144,
                145,
                146,
                147,
                148,
                149,
                150,
                151,
                152,
                153,
                154,
                155,
                156,
                157,
                158,
                159,
                160,
                161,
                162,
                163,
                164,
                165,
                166,
                167,
                168,
                169,
                170,
                171,
                172,
                173,
                174,
                175,
                176,
                177,
                178,
                179,
                180,
                181,
                182,
                183,
                184,
                185,
                186,
                187,
                188,
                189,
                190,
                191,
                192,
                193,
                194,
                195,
                196,
                197,
                198,
                199,
                200,
                201,
                202,
                203,
                204,
                205,
                206,
                207,
                208,
                209,
                210,
                211,
                212,
                213,
                214,
                215,
                216,
                217,
                218,
                219,
                220,
                221,
                222,
                223,
                224,
                225,
                226,
                227,
                228,
                229,
                230,
                231,
                232,
                233,
                234,
                235,
                236,
                237,
                238,
                239,
                240,
                241,
                242,
                243,
                244,
                245,
                246,
                247,
                248,
                249,
                250,
                251,
                252,
                253,
                254,
                255,
                256,
                257,
                258,
                259,
                260,
                261,
                262,
                263,
                264,
                265,
                266,
                267,
                268,
                269,
                270,
                271,
                272,
                273,
                274,
                275,
                276,
                277,
                278,
                279,
                280,
                281,
                282,
                283,
                284,
                285,
                286,
                287,
                288
            ],
            "LargestImagePixelValue": [
                6644,
                5493,
                6921,
                7066,
                6897,
                6100,
                5651,
                5259,
                6027,
                4881,
                5248,
                5178,
                5307,
                5691,
                6372,
                5676,
                6526,
                6321,
                6447,
                6114,
                6881,
                6256,
                7286,
                6775,
                7774,
                7166,
                8349,
                7363,
                8379,
                8284,
                9581,
                9291,
                9124,
                7985,
                8501,
                8481,
                9009,
                8331,
                8941,
                8063,
                8293,
                8527,
                9677,
                9670,
                9184,
                7960,
                3114,
                1807,
                6235,
                4655,
                5676,
                5589,
                5646,
                4995,
                4567,
                4337,
                4941,
                4220,
                4645,
                4308,
                4564,
                4746,
                5212,
                4867,
                5294,
                5158,
                5261,
                5005,
                5547,
                5268,
                6101,
                6019,
                6267,
                6158,
                6628,
                6182,
                6864,
                6977,
                7925,
                8015,
                7509,
                6962,
                6887,
                6996,
                7607,
                7172,
                7438,
                7076,
                7093,
                7434,
                8399,
                8542,
                8080,
                6816,
                2682,
                1693,
                5730,
                4220,
                5125,
                5275,
                5048,
                4694,
                4304,
                4150,
                4412,
                4237,
                4318,
                4001,
                4325,
                4556,
                4924,
                4757,
                5134,
                4949,
                4943,
                4892,
                5224,
                5012,
                5571,
                5782,
                5824,
                5800,
                6270,
                5926,
                6388,
                6681,
                7546,
                7506,
                7091,
                6613,
                6412,
                6642,
                7203,
                6847,
                7011,
                6699,
                6737,
                7042,
                7941,
                8100,
                7629,
                6753,
                2468,
                1726,
                5095,
                4073,
                5044,
                5069,
                4899,
                4834,
                4182,
                4053,
                4084,
                4127,
                4026,
                4021,
                4215,
                4527,
                4827,
                4772,
                5091,
                4877,
                4898,
                4873,
                5160,
                4992,
                5324,
                5663,
                5604,
                5701,
                6068,
                5871,
                6429,
                6430,
                7402,
                7276,
                6840,
                6430,
                6412,
                6381,
                7060,
                6596,
                6861,
                6595,
                6578,
                6948,
                7698,
                7985,
                7499,
                6534,
                2310,
                1633,
                6398,
                4478,
                5042,
                5141,
                4821,
                4566,
                4185,
                4053,
                4063,
                4027,
                3962,
                3977,
                4158,
                4383,
                4801,
                4611,
                5080,
                4939,
                4879,
                4817,
                4952,
                4960,
                5432,
                5655,
                5505,
                5581,
                6147,
                5803,
                6216,
                6333,
                7323,
                7291,
                6743,
                6336,
                6187,
                6321,
                6915,
                6653,
                6852,
                6463,
                6534,
                6744,
                7683,
                7854,
                7436,
                6532,
                2452,
                1532,
                5887,
                4141,
                4990,
                5249,
                4907,
                4631,
                4048,
                4024,
                4020,
                4205,
                3961,
                4022,
                4172,
                4482,
                4846,
                4778,
                5149,
                4808,
                4944,
                4801,
                5038,
                4931,
                5438,
                5660,
                5485,
                5692,
                6040,
                5718,
                6139,
                6224,
                7243,
                7302,
                6713,
                6395,
                6250,
                6291,
                6865,
                6573,
                6811,
                6475,
                6504,
                6803,
                7734,
                7775,
                7329,
                6447,
                2324,
                1678
            ],
            "TriggerTime": [
                75.0,
                975.0,
                150.0,
                1050.0,
                225.0,
                1125.0,
                300.0,
                1200.0,
                375.0,
                1275.0,
                450.0,
                1350.0,
                525.0,
                1425.0,
                600.0,
                1500.0,
                675.0,
                1575.0,
                750.0,
                1650.0,
                825.0,
                1800.0,
                900.0,
                1725.0,
                75.0,
                975.0,
                150.0,
                1050.0,
                225.0,
                1125.0,
                300.0,
                1200.0,
                375.0,
                1275.0,
                450.0,
                1350.0,
                525.0,
                1425.0,
                600.0,
                1500.0,
                675.0,
                1575.0,
                750.0,
                1650.0,
                825.0,
                1800.0,
                900.0,
                1725.0,
                1875.0,
                2775.0,
                1950.0,
                2850.0,
                2025.0,
                2925.0,
                2100.0,
                3000.0,
                2175.0,
                3075.0,
                2250.0,
                3150.0,
                2325.0,
                3225.0,
                2400.0,
                3300.0,
                2475.0,
                3375.0,
                2550.0,
                3450.0,
                2625.0,
                3600.0,
                2700.0,
                3525.0,
                1875.0,
                2775.0,
                1950.0,
                2850.0,
                2025.0,
                2925.0,
                2100.0,
                3000.0,
                2175.0,
                3075.0,
                2250.0,
                3150.0,
                2325.0,
                3225.0,
                2400.0,
                3300.0,
                2475.0,
                3375.0,
                2550.0,
                3450.0,
                2625.0,
                3600.0,
                2700.0,
                3525.0,
                3675.0,
                4575.0,
                3750.0,
                4650.0,
                3825.0,
                4725.0,
                3900.0,
                4800.0,
                3975.0,
                4875.0,
                4050.0,
                4950.0,
                4125.0,
                5025.0,
                4200.0,
                5100.0,
                4275.0,
                5175.0,
                4350.0,
                5250.0,
                4425.0,
                5400.0,
                4500.0,
                5325.0,
                3675.0,
                4575.0,
                3750.0,
                4650.0,
                3825.0,
                4725.0,
                3900.0,
                4800.0,
                3975.0,
                4875.0,
                4050.0,
                4950.0,
                4125.0,
                5025.0,
                4200.0,
                5100.0,
                4275.0,
                5175.0,
                4350.0,
                5250.0,
                4425.0,
                5400.0,
                4500.0,
                5325.0,
                5475.0,
                6375.0,
                5550.0,
                6450.0,
                5625.0,
                6525.0,
                5700.0,
                6600.0,
                5775.0,
                6675.0,
                5850.0,
                6750.0,
                5925.0,
                6825.0,
                6000.0,
                6900.0,
                6075.0,
                6975.0,
                6150.0,
                7050.0,
                6225.0,
                7200.0,
                6300.0,
                7125.0,
                5475.0,
                6375.0,
                5550.0,
                6450.0,
                5625.0,
                6525.0,
                5700.0,
                6600.0,
                5775.0,
                6675.0,
                5850.0,
                6750.0,
                5925.0,
                6825.0,
                6000.0,
                6900.0,
                6075.0,
                6975.0,
                6150.0,
                7050.0,
                6225.0,
                7200.0,
                6300.0,
                7125.0,
                7275.0,
                8175.0,
                7350.0,
                8250.0,
                7425.0,
                8325.0,
                7500.0,
                8400.0,
                7575.0,
                8475.0,
                7650.0,
                8550.0,
                7725.0,
                8625.0,
                7800.0,
                8700.0,
                7875.0,
                8775.0,
                7950.0,
                8850.0,
                8025.0,
                9000.0,
                8100.0,
                8925.0,
                7275.0,
                8175.0,
                7350.0,
                8250.0,
                7425.0,
                8325.0,
                7500.0,
                8400.0,
                7575.0,
                8475.0,
                7650.0,
                8550.0,
                7725.0,
                8625.0,
                7800.0,
                8700.0,
                7875.0,
                8775.0,
                7950.0,
                8850.0,
                8025.0,
                9000.0,
                8100.0,
                8925.0,
                9075.0,
                9975.0,
                9150.0,
                10050.0,
                9225.0,
                10125.0,
                9300.0,
                10200.0,
                9375.0,
                10275.0,
                9450.0,
                10350.0,
                9525.0,
                10425.0,
                9600.0,
                10500.0,
                9675.0,
                10575.0,
                9750.0,
                10650.0,
                9825.0,
                10800.0,
                9900.0,
                10725.0,
                9075.0,
                9975.0,
                9150.0,
                10050.0,
                9225.0,
                10125.0,
                9300.0,
                10200.0,
                9375.0,
                10275.0,
                9450.0,
                10350.0,
                9525.0,
                10425.0,
                9600.0,
                10500.0,
                9675.0,
                10575.0,
                9750.0,
                10650.0,
                9825.0,
                10800.0,
                9900.0,
                10725.0
            ],
            "WindowCenter": [
                3986.0,
                3295.0,
                4152.0,
                4239.0,
                4138.0,
                3660.0,
                3390.0,
                3155.0,
                3616.0,
                2928.0,
                3148.0,
                3106.0,
                3184.0,
                3414.0,
                3823.0,
                3405.0,
                3915.0,
                3792.0,
                3868.0,
                3668.0,
                4128.0,
                3753.0,
                4371.0,
                4065.0,
                4664.0,
                4299.0,
                5009.0,
                4417.0,
                5027.0,
                4970.0,
                5748.0,
                5574.0,
                5474.0,
                4791.0,
                5100.0,
                5088.0,
                5405.0,
                4998.0,
                5364.0,
                4837.0,
                4975.0,
                5116.0,
                5806.0,
                5802.0,
                5510.0,
                4776.0,
                1868.0,
                1084.0,
                3741.0,
                2793.0,
                3405.0,
                3353.0,
                3387.0,
                2997.0,
                2740.0,
                2602.0,
                2964.0,
                2532.0,
                2787.0,
                2584.0,
                2738.0,
                2847.0,
                3127.0,
                2920.0,
                3176.0,
                3094.0,
                3156.0,
                3003.0,
                3328.0,
                3160.0,
                3660.0,
                3611.0,
                3760.0,
                3694.0,
                3976.0,
                3709.0,
                4118.0,
                4186.0,
                4755.0,
                4809.0,
                4505.0,
                4177.0,
                4132.0,
                4197.0,
                4564.0,
                4303.0,
                4462.0,
                4245.0,
                4255.0,
                4460.0,
                5039.0,
                5125.0,
                4848.0,
                4089.0,
                1609.0,
                1015.0,
                3438.0,
                2532.0,
                3075.0,
                3165.0,
                3028.0,
                2816.0,
                2582.0,
                2490.0,
                2647.0,
                2542.0,
                2590.0,
                2400.0,
                2595.0,
                2733.0,
                2954.0,
                2854.0,
                3080.0,
                2969.0,
                2965.0,
                2935.0,
                3134.0,
                3007.0,
                3342.0,
                3469.0,
                3494.0,
                3480.0,
                3762.0,
                3555.0,
                3832.0,
                4008.0,
                4527.0,
                4503.0,
                4254.0,
                3967.0,
                3847.0,
                3985.0,
                4321.0,
                4108.0,
                4206.0,
                4019.0,
                4042.0,
                4225.0,
                4764.0,
