{
    "AcquisitionMatrixPE": 88,
    "AcquisitionNumber": 1,
    "AcquisitionTime": "08:17:46.000000",
    "BodyPartExamined": "BRAIN",
    "CoilString": "48HAP",
    "ConversionSoftware": "dcm2niix",
    "ConversionSoftwareVersion": "v1.0.20190410  GCC6.3.0",
    "DeviceSerialNumber": "0000000319335MR2",
    "EchoTime": 0.03,
    "EffectiveEchoSpacing": 0.000564,
    "FlipAngle": 75,
    "ImageOrientationPatientDICOM": [
        1,
        0,
        0,
        0,
        0.995685,
        0.0928014
    ],
    "ImageType": [
        "ORIGINAL",
        "PRIMARY",
        "OTHER"
    ],
    "ImagingFrequency": 127.754,
    "InPlanePhaseEncodingDirectionDICOM": "COL",
    "InstitutionName": "Iowa_MRRF",
    "IntendedFor": [
        "func/sub-10033_task-ThalHi_run-001_bold.nii.gz",
        "func/sub-10033_task-ThalHi_run-002_bold.nii.gz",
        "func/sub-10033_task-ThalHi_run-003_bold.nii.gz",
        "func/sub-10033_task-ThalHi_run-004_bold.nii.gz"
    ],
    "MRAcquisitionType": "2D",
    "MagneticFieldStrength": 3,
    "Manufacturer": "GE",
    "ManufacturersModelName": "SIGNA_Premier",
    "Modality": "MR",
    "PatientPosition": "HFS",
    "PercentPhaseFOV": 100,
    "PhaseEncodingDirection": "j",
    "PhaseEncodingPolarityGE": "Flipped",
    "PixelBandwidth": 3906.25,
    "ProcedureStepDescription": "HWANG_NET",
    "ProtocolName": "EPI_FM_pepolar=0",
    "ReconMatrixPE": 128,
    "RepetitionTime": 1.8,
    "SAR": 0.0712968,
    "ScanOptions": "SAT_GEMS_EDR_GEMS_MP_GEMS_EPI_GEMS_HYPERBAND_GEMS_FS",
    "ScanningSequence": "EP_GR",
    "SequenceVariant": "SS",
    "SeriesDescription": "EPI_FM_pepolar=0",
    "SeriesNumber": 4,
    "SliceThickness": 2.5,
    "SliceTiming": [
        0,
        0.9,
        0.075,
        0.975,
        0.15,
        1.05,
        0.225,
        1.125,
        0.3,
        1.2,
        0.375,
        1.275,
        0.45,
        1.35,
        0.525,
        1.425,
        0.6,
        1.5,
        0.675,
        1.575,
        0.75,
        1.725,
        0.825,
        1.65,
        0,
        0.9,
        0.075,
        0.975,
        0.15,
        1.05,
        0.225,
        1.125,
        0.3,
        1.2,
        0.375,
        1.275,
        0.45,
        1.35,
        0.525,
        1.425,
        0.6,
        1.5,
        0.675,
        1.575,
        0.75,
        1.725,
        0.825,
        1.65
    ],
    "SoftwareVersions": "28_LX_MR_Software_release:RX28.0_R05_2035.a",
    "SpacingBetweenSlices": 2.5,
    "StationName": "Iowa3T",
    "TotalReadoutTime": 0.071628,
    "TriggerDelayTime": 10650,
    "dcmmeta_affine": [
        [
            -1.7187999486923218,
            0.0,
            0.0,
            107.57793426513672
        ],
        [
            0.0,
            1.7113827466964722,
            0.23200225830078125,
            -109.91949462890625
        ],
        [
            0.0,
            -0.15950703620910645,
            2.4892120361328125,
            -26.502960205078125
        ],
        [
            0.0,
            0.0,
            0.0,
            1.0
        ]
    ],
    "dcmmeta_reorient_transform": [
        [
            0.0,
            -1.0,
            0.0,
            127.0
        ],
        [
            1.0,
            0.0,
            0.0,
            0.0
        ],
        [
            0.0,
            0.0,
            -1.0,
            47.0
        ],
        [
            0.0,
            0.0,
            0.0,
            1.0
        ]
    ],
    "dcmmeta_shape": [
        128,
        128,
        48,
        6
    ],
    "dcmmeta_slice_dim": 2,
    "dcmmeta_version": 0.6,
    "global": {
        "const": {
            "AcquisitionMatrix": [
                88,
                0,
                0,
                88
            ],
            "AcquisitionNumber": 1,
            "AcquisitionTime": "081746",
            "AnatomicRegionSequence": [
                {
                    "CodeMeaning": "Brain",
                    "CodeValue": "T-A0100",
                    "CodingSchemeDesignator": "SRT"
                }
            ],
            "AngioFlag": "N",
            "BeatRejectionFlag": "Y",
            "BitsAllocated": 16,
            "BitsStored": 16,
            "BodyPartExamined": "BRAIN",
            "CardiacNumberOfImages": 0,
            "Columns": 128,
            "ContentTime": "081746",
            "EchoNumbers": 1,
            "EchoTime": 30.0,
            "EchoTrainLength": 1,
            "FlipAngle": 75.0,
            "GroupLength_0X40_0X0": 98,
            "GroupLength_0X7FE0_0X0": 32780,
            "HeartRate": 0,
            "HighBit": 15,
            "ImageType": [
                "ORIGINAL",
                "PRIMARY",
                "OTHER"
            ],
            "ImagedNucleus": "1H",
            "ImagesInAcquisition": 288,
            "ImagingFrequency": 127.753634,
            "InPlanePhaseEncodingDirection": "COL",
            "MRAcquisitionType": "2D",
            "MagneticFieldStrength": 3.0,
            "Manufacturer": "GE MEDICAL SYSTEMS",
            "ManufacturerModelName": "SIGNA Premier",
            "Modality": "MR",
            "NumberOfAverages": 1.0,
            "NumberOfTemporalPositions": 6,
            "PercentPhaseFieldOfView": 100.0,
            "PercentSampling": 100.0,
            "PerformedLocation": "Iowa",
            "PerformedProcedureStepStartTime": "080855",
            "PhotometricInterpretation": "MONOCHROME2",
            "PixelBandwidth": 3906.25,
            "PixelRepresentation": 1,
            "PixelSpacing": [
                1.7188,
                1.7188
            ],
            "ProtocolName": "HWANG_NET_THALHI",
            "ReceiveCoilName": "48HAP",
            "ReconstructionDiameter": 220.0,
            "ReferencedPerformedProcedureStepSequence": [
                {
                    "ReferencedSOPClassUID": "1.2.840.10008.3.1.2.3.3",
                    "ReferencedSOPInstanceUID": "1.2.840.113619.6.475.29562900189111493484684869771234272067"
                }
            ],
            "RepetitionTime": 1800.0,
            "Rows": 128,
            "SAR": 0.0712968,
            "SamplesPerPixel": 1,
            "ScanOptions": [
                "SAT_GEMS",
                "EDR_GEMS",
                "MP_GEMS",
                "EPI_GEMS",
                "HYPERBAND_GEMS",
                "FS"
            ],
            "ScanningSequence": [
                "EP",
                "GR"
            ],
            "SequenceVariant": "SS",
            "SeriesDescription": "EPI FM pepolar=0",
            "SeriesNumber": 4,
            "SeriesTime": "081746",
            "SliceThickness": 2.5,
            "SmallestImagePixelValue": 0,
            "SoftwareVersions": [
                "28",
                "LX",
                "MR Software release:RX28.0_R05_2035.a"
            ],
            "SpacingBetweenSlices": 2.5,
            "SpecificCharacterSet": "ISO_IR 100",
            "StackID": "1",
            "StudyID": "1332",
            "StudyTime": "080905",
            "TriggerWindow": 0,
            "VariableFlipAngleFlag": "N"
        },
        "slices": {
            "InstanceNumber": [
                1,
                2,
                3,
                4,
                5,
                6,
                7,
                8,
                9,
                10,
                11,
                12,
                13,
                14,
                15,
                16,
                17,
                18,
                19,
                20,
                21,
                22,
                23,
                24,
                25,
                26,
                27,
                28,
                29,
                30,
                31,
                32,
                33,
                34,
                35,
                36,
                37,
                38,
                39,
                40,
                41,
                42,
                43,
                44,
                45,
                46,
                47,
                48,
                49,
                50,
                51,
                52,
                53,
                54,
                55,
                56,
                57,
                58,
                59,
                60,
                61,
                62,
                63,
                64,
                65,
                66,
                67,
                68,
                69,
                70,
                71,
                72,
                73,
                74,
                75,
                76,
                77,
                78,
                79,
                80,
                81,
                82,
                83,
                84,
                85,
                86,
                87,
                88,
                89,
                90,
                91,
                92,
                93,
                94,
                95,
                96,
                97,
                98,
                99,
                100,
                101,
                102,
                103,
                104,
                105,
                106,
                107,
                108,
                109,
                110,
                111,
                112,
                113,
                114,
                115,
                116,
                117,
                118,
                119,
                120,
                121,
                122,
                123,
                124,
                125,
                126,
                127,
                128,
                129,
                130,
                131,
                132,
                133,
                134,
                135,
                136,
                137,
                138,
                139,
                140,
                141,
                142,
                143,
                144,
                145,
                146,
                147,
                148,
                149,
                150,
                151,
                152,
                153,
                154,
                155,
                156,
                157,
                158,
                159,
                160,
                161,
                162,
                163,
                164,
                165,
                166,
                167,
                168,
                169,
                170,
                171,
                172,
                173,
                174,
                175,
                176,
                177,
                178,
                179,
                180,
                181,
                182,
                183,
                184,
                185,
                186,
                187,
                188,
                189,
                190,
                191,
                192,
                193,
                194,
                195,
                196,
                197,
                198,
                199,
                200,
                201,
                202,
                203,
                204,
                205,
                206,
                207,
                208,
                209,
                210,
                211,
                212,
                213,
                214,
                215,
                216,
                217,
                218,
                219,
                220,
                221,
                222,
                223,
                224,
                225,
                226,
                227,
                228,
                229,
                230,
                231,
                232,
                233,
                234,
                235,
                236,
                237,
                238,
                239,
                240,
                241,
                242,
                243,
                244,
                245,
                246,
                247,
                248,
                249,
                250,
                251,
                252,
                253,
                254,
                255,
                256,
                257,
                258,
                259,
                260,
                261,
                262,
                263,
                264,
                265,
                266,
                267,
                268,
                269,
                270,
                271,
                272,
                273,
                274,
                275,
                276,
                277,
                278,
                279,
                280,
                281,
                282,
                283,
                284,
                285,
                286,
                287,
                288
            ],
            "LargestImagePixelValue": [
                6065,
                5267,
                5737,
                4571,
                5256,
                4963,
                6543,
                6818,
                6759,
                4959,
                5756,
                6598,
                5481,
                4850,
                5458,
                5333,
                6067,
                5610,
                6485,
                6357,
                7224,
                6468,
                6897,
                6831,
                7631,
                7212,
                8001,
                8093,
                9173,
                7873,
                8927,
                8864,
                9496,
                9296,
                8529,
                9836,
                10696,
                10051,
                9355,
                9161,
                9533,
                8680,
                8990,
                10198,
                9673,
                9409,
                8466,
                9054,
                5027,
                4375,
                4210,
                3844,
                4127,
                4270,
                5215,
                5484,
                5334,
                4190,
                4684,
                5233,
                4190,
                4169,
                4367,
                4340,
                4881,
                4534,
                5127,
                5137,
                5790,
                5303,
                5689,
                5645,
                6016,
                6180,
                6136,
                6936,
                7713,
                6708,
                7532,
                7401,
                8004,
                7958,
                7238,
                8443,
                9272,
                8485,
                7782,
                7750,
                8149,
                7513,
                7502,
                8537,
                8026,
                8016,
                7056,
                7731,
                4242,
                4077,
                4110,
                3772,
                3980,
                4206,
                4777,
                5117,
                4939,
                3942,
                4258,
                4931,
                4075,
                4063,
                4169,
                4227,
                4525,
                4359,
                4807,
                4972,
                5429,
                4983,
                5228,
                5459,
                5549,
                5800,
                5690,
                6482,
                7145,
                6361,
                7133,
                7191,
                7471,
                7454,
                6686,
                8010,
                8683,
                7880,
                7177,
                7248,
                7157,
                7034,
                7010,
                7974,
                7467,
                7121,
                6645,
                7336,
                4416,
                4058,
                3971,
                3741,
                3888,
                4175,
                4670,
                5050,
                4777,
                3889,
                4236,
                4729,
                4081,
                4056,
                4123,
                4298,
                4451,
                4370,
                4649,
                4865,
                5315,
                4970,
                5086,
                5337,
                5430,
                5462,
                5333,
                6298,
                6974,
                6204,
                6973,
                6993,
                7370,
                7286,
                6651,
                7812,
                8333,
                7606,
                7000,
                6687,
                7430,
                6921,
                6764,
                7762,
                7223,
                7205,
                6467,
                7078,
                4257,
                4019,
                3956,
                3712,
                3898,
                4177,
                4632,
                5032,
                4791,
                4118,
                4144,
                4702,
                4144,
                4005,
                4063,
                4278,
                4381,
                4266,
                4434,
                4667,
                5203,
                4866,
                5063,
                5259,
                5350,
                5656,
                5631,
                6285,
                6897,
                6012,
                6837,
                6882,
                7300,
                7202,
                6468,
                7720,
                8317,
                7525,
                6864,
                7044,
                7228,
                6895,
                6776,
                7706,
                7125,
                7043,
                6442,
                7122,
                4759,
                4033,
                4037,
                3755,
                3892,
                4152,
                4181,
                4928,
                4623,
                4003,
                4409,
                4337,
                4125,
                3997,
                4084,
                4271,
                4249,
                4325,
                4572,
                4729,
                5102,
                4851,
                5049,
                5272,
                5336,
                5521,
                5598,
                6277,
                6932,
                5940,
                6829,
                6893,
                7250,
                7171,
                6502,
                7690,
                8226,
                7512,
                6864,
                6978,
                7177,
                6854,
                6644,
                7639,
                7053,
                7082,
                6346,
                7091
            ],
            "TriggerTime": [
                75.0,
                975.0,
                150.0,
                1050.0,
                225.0,
                1125.0,
                300.0,
                1200.0,
                375.0,
                1275.0,
                450.0,
                1350.0,
                525.0,
                1425.0,
                600.0,
                1500.0,
                675.0,
                1575.0,
                750.0,
                1650.0,
                825.0,
                1800.0,
                900.0,
                1725.0,
                75.0,
                975.0,
                150.0,
                1050.0,
                225.0,
                1125.0,
                300.0,
                1200.0,
                375.0,
                1275.0,
                450.0,
                1350.0,
                525.0,
                1425.0,
                600.0,
                1500.0,
                675.0,
                1575.0,
                750.0,
                1650.0,
                825.0,
                1800.0,
                900.0,
                1725.0,
                1875.0,
                2775.0,
                1950.0,
                2850.0,
                2025.0,
                2925.0,
                2100.0,
                3000.0,
                2175.0,
                3075.0,
                2250.0,
                3150.0,
                2325.0,
                3225.0,
                2400.0,
                3300.0,
                2475.0,
                3375.0,
                2550.0,
                3450.0,
                2625.0,
                3600.0,
                2700.0,
                3525.0,
                1875.0,
                2775.0,
                1950.0,
                2850.0,
                2025.0,
                2925.0,
                2100.0,
                3000.0,
                2175.0,
                3075.0,
                2250.0,
                3150.0,
                2325.0,
                3225.0,
                2400.0,
                3300.0,
                2475.0,
                3375.0,
                2550.0,
                3450.0,
                2625.0,
                3600.0,
                2700.0,
                3525.0,
                3675.0,
                4575.0,
                3750.0,
                4650.0,
                3825.0,
                4725.0,
                3900.0,
                4800.0,
                3975.0,
                4875.0,
                4050.0,
                4950.0,
                4125.0,
                5025.0,
                4200.0,
                5100.0,
                4275.0,
                5175.0,
                4350.0,
                5250.0,
                4425.0,
                5400.0,
                4500.0,
                5325.0,
                3675.0,
                4575.0,
                3750.0,
                4650.0,
                3825.0,
                4725.0,
                3900.0,
                4800.0,
                3975.0,
                4875.0,
                4050.0,
                4950.0,
                4125.0,
                5025.0,
                4200.0,
                5100.0,
                4275.0,
                5175.0,
                4350.0,
                5250.0,
                4425.0,
                5400.0,
                4500.0,
                5325.0,
                5475.0,
                6375.0,
                5550.0,
                6450.0,
                5625.0,
                6525.0,
                5700.0,
                6600.0,
                5775.0,
                6675.0,
                5850.0,
                6750.0,
                5925.0,
                6825.0,
                6000.0,
                6900.0,
                6075.0,
                6975.0,
                6150.0,
                7050.0,
                6225.0,
                7200.0,
                6300.0,
                7125.0,
                5475.0,
                6375.0,
                5550.0,
                6450.0,
                5625.0,
                6525.0,
                5700.0,
                6600.0,
                5775.0,
                6675.0,
                5850.0,
                6750.0,
                5925.0,
                6825.0,
                6000.0,
                6900.0,
                6075.0,
                6975.0,
                6150.0,
                7050.0,
                6225.0,
                7200.0,
                6300.0,
                7125.0,
                7275.0,
                8175.0,
                7350.0,
                8250.0,
                7425.0,
                8325.0,
                7500.0,
                8400.0,
                7575.0,
                8475.0,
                7650.0,
                8550.0,
                7725.0,
                8625.0,
                7800.0,
                8700.0,
                7875.0,
                8775.0,
                7950.0,
                8850.0,
                8025.0,
                9000.0,
                8100.0,
                8925.0,
                7275.0,
                8175.0,
                7350.0,
                8250.0,
                7425.0,
                8325.0,
                7500.0,
                8400.0,
                7575.0,
                8475.0,
                7650.0,
                8550.0,
                7725.0,
                8625.0,
                7800.0,
                8700.0,
                7875.0,
                8775.0,
                7950.0,
                8850.0,
                8025.0,
                9000.0,
                8100.0,
                8925.0,
                9075.0,
                9975.0,
                9150.0,
                10050.0,
                9225.0,
                10125.0,
                9300.0,
                10200.0,
                9375.0,
                10275.0,
                9450.0,
                10350.0,
                9525.0,
                10425.0,
                9600.0,
                10500.0,
                9675.0,
                10575.0,
                9750.0,
                10650.0,
                9825.0,
                10800.0,
                9900.0,
                10725.0,
                9075.0,
                9975.0,
                9150.0,
                10050.0,
                9225.0,
                10125.0,
                9300.0,
                10200.0,
                9375.0,
                10275.0,
                9450.0,
                10350.0,
                9525.0,
                10425.0,
                9600.0,
                10500.0,
                9675.0,
                10575.0,
                9750.0,
                10650.0,
                9825.0,
                10800.0,
                9900.0,
                10725.0
            ],
            "WindowCenter": [
                3639.0,
                3160.0,
                3442.0,
                2742.0,
                3153.0,
                2977.0,
                3925.0,
                4090.0,
                4055.0,
                2975.0,
                3453.0,
                3958.0,
                3288.0,
                2910.0,
                3274.0,
                3199.0,
                3640.0,
                3366.0,
                3891.0,
                3814.0,
                4334.0,
                3880.0,
                4138.0,
                4098.0,
                4578.0,
                4327.0,
                4800.0,
                4855.0,
                5503.0,
                4723.0,
                5356.0,
                5318.0,
                5697.0,
                5577.0,
                5117.0,
                5901.0,
                6417.0,
                6030.0,
                5613.0,
                5496.0,
                5719.0,
                5208.0,
                5394.0,
                6118.0,
                5803.0,
                5645.0,
                5079.0,
                5432.0,
                3016.0,
                2625.0,
                2526.0,
                2306.0,
                2476.0,
                2562.0,
                3129.0,
                3290.0,
                3200.0,
                2514.0,
                2810.0,
                3139.0,
                2514.0,
                2501.0,
                2620.0,
                2604.0,
                2928.0,
                2720.0,
                3076.0,
                3082.0,
                3474.0,
                3181.0,
                3413.0,
                3387.0,
                3609.0,
                3708.0,
                3681.0,
                4161.0,
                4627.0,
                4024.0,
                4519.0,
                4440.0,
                4802.0,
                4774.0,
                4342.0,
                5065.0,
                5563.0,
                5091.0,
                4669.0,
                4650.0,
                4889.0,
                4507.0,
                4501.0,
                5122.0,
                4815.0,
                4809.0,
                4233.0,
                4638.0,
                2545.0,
                2446.0,
                2466.0,
                2263.0,
                2388.0,
                2523.0,
                2866.0,
                3070.0,
                2963.0,
                2365.0,
                2554.0,
                2958.0,
                2445.0,
                2437.0,
                2501.0,
                2536.0,
                2715.0,
                2615.0,
                2884.0,
                2983.0,
                3257.0,
                2989.0,
                3136.0,
                3275.0,
                3329.0,
                3480.0,
                3414.0,
                3889.0,
                4287.0,
                3816.0,
                4279.0,
                4314.0,
                4482.0,
                4472.0,
                4011.0,
                4806.0,
                5209.0,
                4728.0,
                4306.0,
                4348.0,
                4294.0,
                4220.0,
                4206.0,
                4784.0,
                4480.0,
                4272.0,
                3987.0,
                4401.0,
