{
    "AcquisitionMatrixPE": 88,
    "AcquisitionNumber": 1,
    "AcquisitionTime": "09:36:40.000000",
    "BodyPartExamined": "BRAIN",
    "CoilString": "48HAP",
    "ConversionSoftware": "dcm2niix",
    "ConversionSoftwareVersion": "v1.0.20190410  GCC6.3.0",
    "DeviceSerialNumber": "0000000319335MR2",
    "EchoTime": 0.03,
    "EffectiveEchoSpacing": 0.000564,
    "FlipAngle": 75,
    "ImageOrientationPatientDICOM": [
        1,
        0,
        0,
        0,
        0.986735,
        -0.16234
    ],
    "ImageType": [
        "ORIGINAL",
        "PRIMARY",
        "OTHER"
    ],
    "ImagingFrequency": 127.754,
    "InPlanePhaseEncodingDirectionDICOM": "COL",
    "InstitutionName": "Iowa_MRRF",
    "IntendedFor": [
        "func/sub-10176_task-ThalHi_run-001_bold.nii.gz",
        "func/sub-10176_task-ThalHi_run-002_bold.nii.gz",
        "func/sub-10176_task-ThalHi_run-003_bold.nii.gz",
        "func/sub-10176_task-ThalHi_run-004_bold.nii.gz"
    ],
    "MRAcquisitionType": "2D",
    "MagneticFieldStrength": 3,
    "Manufacturer": "GE",
    "ManufacturersModelName": "SIGNA_Premier",
    "Modality": "MR",
    "PatientPosition": "HFS",
    "PercentPhaseFOV": 100,
    "PhaseEncodingDirection": "j-",
    "PhaseEncodingPolarityGE": "Unflipped",
    "PixelBandwidth": 3906.25,
    "ProcedureStepDescription": "HWANG_NET",
    "ProtocolName": "EPI_FM_pepolar=1",
    "ReconMatrixPE": 128,
    "RepetitionTime": 1.8,
    "SAR": 0.0702132,
    "ScanOptions": "SAT_GEMS_EDR_GEMS_MP_GEMS_EPI_GEMS_HYPERBAND_GEMS_FS",
    "ScanningSequence": "EP_GR",
    "SequenceVariant": "SS",
    "SeriesDescription": "EPI_FM_pepolar=1",
    "SeriesNumber": 5,
    "SliceThickness": 2.5,
    "SliceTiming": [
        0,
        0.9,
        0.075,
        0.975,
        0.15,
        1.05,
        0.225,
        1.125,
        0.3,
        1.2,
        0.375,
        1.275,
        0.45,
        1.35,
        0.525,
        1.425,
        0.6,
        1.5,
        0.675,
        1.575,
        0.75,
        1.725,
        0.825,
        1.65,
        0,
        0.9,
        0.075,
        0.975,
        0.15,
        1.05,
        0.225,
        1.125,
        0.3,
        1.2,
        0.375,
        1.275,
        0.45,
        1.35,
        0.525,
        1.425,
        0.6,
        1.5,
        0.675,
        1.575,
        0.75,
        1.725,
        0.825,
        1.65
    ],
    "SoftwareVersions": "28_LX_MR_Software_release:RX28.0_R05_2035.a",
    "SpacingBetweenSlices": 2.5,
    "StationName": "Iowa3T",
    "TotalReadoutTime": 0.071628,
    "TriggerDelayTime": 10650,
    "dcmmeta_affine": [
        [
            -1.7187999486923218,
            0.0,
            0.0,
            108.34646606445312
        ],
        [
            0.0,
            1.6959997415542603,
            -0.405853271484375,
            -111.12954711914062
        ],
        [
            0.0,
            0.2790306806564331,
            2.4668350219726562,
            -49.91834259033203
        ],
        [
            0.0,
            0.0,
            0.0,
            1.0
        ]
    ],
    "dcmmeta_reorient_transform": [
        [
            0.0,
            -1.0,
            0.0,
            127.0
        ],
        [
            1.0,
            0.0,
            0.0,
            0.0
        ],
        [
            0.0,
            0.0,
            -1.0,
            47.0
        ],
        [
            0.0,
            0.0,
            0.0,
            1.0
        ]
    ],
    "dcmmeta_shape": [
        128,
        128,
        48,
        6
    ],
    "dcmmeta_slice_dim": 2,
    "dcmmeta_version": 0.6,
    "global": {
        "const": {
            "AcquisitionMatrix": [
                88,
                0,
                0,
                88
            ],
            "AcquisitionNumber": 1,
            "AcquisitionTime": "093640",
            "AnatomicRegionSequence": [
                {
                    "CodeMeaning": "Brain",
                    "CodeValue": "T-A0100",
                    "CodingSchemeDesignator": "SRT"
                }
            ],
            "AngioFlag": "N",
            "BeatRejectionFlag": "Y",
            "BitsAllocated": 16,
            "BitsStored": 16,
            "BodyPartExamined": "BRAIN",
            "CardiacNumberOfImages": 0,
            "Columns": 128,
            "ContentTime": "093640",
            "EchoNumbers": 1,
            "EchoTime": 30.0,
            "EchoTrainLength": 1,
            "FlipAngle": 75.0,
            "GroupLength_0X40_0X0": 98,
            "GroupLength_0X7FE0_0X0": 32780,
            "HeartRate": 0,
            "HighBit": 15,
            "ImageType": [
                "ORIGINAL",
                "PRIMARY",
                "OTHER"
            ],
            "ImagedNucleus": "1H",
            "ImagesInAcquisition": 288,
            "ImagingFrequency": 127.753611,
            "InPlanePhaseEncodingDirection": "COL",
            "MRAcquisitionType": "2D",
            "MagneticFieldStrength": 3.0,
            "Manufacturer": "GE MEDICAL SYSTEMS",
            "ManufacturerModelName": "SIGNA Premier",
            "Modality": "MR",
            "NumberOfAverages": 1.0,
            "NumberOfTemporalPositions": 6,
            "PercentPhaseFieldOfView": 100.0,
            "PercentSampling": 100.0,
            "PerformedLocation": "Iowa",
            "PerformedProcedureStepStartTime": "092804",
            "PhotometricInterpretation": "MONOCHROME2",
            "PixelBandwidth": 3906.25,
            "PixelRepresentation": 1,
            "PixelSpacing": [
                1.7188,
                1.7188
            ],
            "ProtocolName": "HWANG_NET_THALHI",
            "ReceiveCoilName": "48HAP",
            "ReconstructionDiameter": 220.0,
            "ReferencedPerformedProcedureStepSequence": [
                {
                    "ReferencedSOPClassUID": "1.2.840.10008.3.1.2.3.3",
                    "ReferencedSOPInstanceUID": "1.2.840.113619.6.475.258849513765442702597783365352746555223"
                }
            ],
            "RepetitionTime": 1800.0,
            "Rows": 128,
            "SAR": 0.0702132,
            "SamplesPerPixel": 1,
            "ScanOptions": [
                "SAT_GEMS",
                "EDR_GEMS",
                "MP_GEMS",
                "EPI_GEMS",
                "HYPERBAND_GEMS",
                "FS"
            ],
            "ScanningSequence": [
                "EP",
                "GR"
            ],
            "SequenceVariant": "SS",
            "SeriesDescription": "EPI FM pepolar=1",
            "SeriesNumber": 5,
            "SeriesTime": "093640",
            "SliceThickness": 2.5,
            "SmallestImagePixelValue": 0,
            "SoftwareVersions": [
                "28",
                "LX",
                "MR Software release:RX28.0_R05_2035.a"
            ],
            "SpacingBetweenSlices": 2.5,
            "SpecificCharacterSet": "ISO_IR 100",
            "StackID": "1",
            "StudyID": "2695",
            "StudyTime": "092811",
            "TriggerWindow": 0,
            "VariableFlipAngleFlag": "N"
        },
        "slices": {
            "InstanceNumber": [
                1,
                2,
                3,
                4,
                5,
                6,
                7,
                8,
                9,
                10,
                11,
                12,
                13,
                14,
                15,
                16,
                17,
                18,
                19,
                20,
                21,
                22,
                23,
                24,
                25,
                26,
                27,
                28,
                29,
                30,
                31,
                32,
                33,
                34,
                35,
                36,
                37,
                38,
                39,
                40,
                41,
                42,
                43,
                44,
                45,
                46,
                47,
                48,
                49,
                50,
                51,
                52,
                53,
                54,
                55,
                56,
                57,
                58,
                59,
                60,
                61,
                62,
                63,
                64,
                65,
                66,
                67,
                68,
                69,
                70,
                71,
                72,
                73,
                74,
                75,
                76,
                77,
                78,
                79,
                80,
                81,
                82,
                83,
                84,
                85,
                86,
                87,
                88,
                89,
                90,
                91,
                92,
                93,
                94,
                95,
                96,
                97,
                98,
                99,
                100,
                101,
                102,
                103,
                104,
                105,
                106,
                107,
                108,
                109,
                110,
                111,
                112,
                113,
                114,
                115,
                116,
                117,
                118,
                119,
                120,
                121,
                122,
                123,
                124,
                125,
                126,
                127,
                128,
                129,
                130,
                131,
                132,
                133,
                134,
                135,
                136,
                137,
                138,
                139,
                140,
                141,
                142,
                143,
                144,
                145,
                146,
                147,
                148,
                149,
                150,
                151,
                152,
                153,
                154,
                155,
                156,
                157,
                158,
                159,
                160,
                161,
                162,
                163,
                164,
                165,
                166,
                167,
                168,
                169,
                170,
                171,
                172,
                173,
                174,
                175,
                176,
                177,
                178,
                179,
                180,
                181,
                182,
                183,
                184,
                185,
                186,
                187,
                188,
                189,
                190,
                191,
                192,
                193,
                194,
                195,
                196,
                197,
                198,
                199,
                200,
                201,
                202,
                203,
                204,
                205,
                206,
                207,
                208,
                209,
                210,
                211,
                212,
                213,
                214,
                215,
                216,
                217,
                218,
                219,
                220,
                221,
                222,
                223,
                224,
                225,
                226,
                227,
                228,
                229,
                230,
                231,
                232,
                233,
                234,
                235,
                236,
                237,
                238,
                239,
                240,
                241,
                242,
                243,
                244,
                245,
                246,
                247,
                248,
                249,
                250,
                251,
                252,
                253,
                254,
                255,
                256,
                257,
                258,
                259,
                260,
                261,
                262,
                263,
                264,
                265,
                266,
                267,
                268,
                269,
                270,
                271,
                272,
                273,
                274,
                275,
                276,
                277,
                278,
                279,
                280,
                281,
                282,
                283,
                284,
                285,
                286,
                287,
                288
            ],
            "LargestImagePixelValue": [
                7460,
                7185,
                7360,
                6066,
                5811,
                5646,
                5625,
                5796,
                6426,
                5572,
                7218,
                6093,
                6528,
                6108,
                6400,
                6454,
                6888,
                6379,
                7025,
                7188,
                8689,
                7982,
                8221,
                8261,
                9224,
                8708,
                9121,
                8428,
                9259,
                9319,
                9788,
                10155,
                10558,
                10502,
                11374,
                10924,
                11553,
                11521,
                14555,
                13103,
                14159,
                14534,
                15973,
                14538,
                15682,
                14006,
                15734,
                15580,
                7136,
                6119,
                5699,
                5369,
                4864,
                4331,
                4236,
                4399,
                4514,
                4508,
                5735,
                4896,
                5236,
                5275,
                5081,
                5353,
                5481,
                5510,
                5632,
                6116,
                7042,
                6587,
                7051,
                7114,
                7382,
                6984,
                7433,
                7219,
                7733,
                8037,
                8252,
                8914,
                9066,
                9004,
                8968,
                8905,
                8964,
                9699,
                11801,
                10846,
                11566,
                12151,
                13089,
                12672,
                12739,
                11738,
                12849,
                13442,
                5259,
                5894,
                4189,
                4307,
                4127,
                3964,
                4012,
                3957,
                4412,
                4270,
                5238,
                4622,
                4901,
                4910,
                4918,
                5002,
                5252,
                5377,
                5539,
                5791,
                6756,
                6119,
                6521,
                6674,
                6535,
                6739,
                6783,
                6767,
                7255,
                7551,
                7625,
                8342,
                8421,
                8425,
                8353,
                8415,
                8445,
                8926,
                10113,
                10079,
                10604,
                11008,
                11826,
                11877,
                11776,
                11032,
                11896,
                12588,
                4803,
                5371,
                4068,
                3946,
                3836,
                3921,
                4048,
                4044,
                4256,
                4207,
                5159,
                4713,
                4748,
                4805,
                4844,
                4914,
                5154,
                5384,
                5471,
                5618,
                6547,
                6083,
                6316,
                6452,
                6466,
                6698,
                6751,
                6644,
                7108,
                7260,
                7440,
                8172,
                8150,
                8131,
                8109,
                8175,
                8295,
                8699,
                10507,
                9790,
                10350,
                10943,
                11669,
                11582,
                11463,
                10709,
                11555,
                12395,
                4971,
                5342,
                3990,
                3773,
                3880,
                3833,
                3880,
                3967,
                4314,
                4293,
                5098,
                4472,
                4490,
                4790,
                4886,
                4908,
                5199,
                5369,
                5487,
                5568,
                6525,
                6017,
                6325,
                6514,
                6495,
                6681,
                6661,
                6580,
                7002,
                7237,
                7262,
                8167,
                8097,
                7927,
                8088,
                8193,
                8162,
                8688,
                10380,
                9752,
                10297,
                10832,
                11540,
                10944,
                11354,
                10560,
                11374,
                12360,
                4731,
                5661,
                4105,
                3837,
                4120,
                3840,
                4019,
                3950,
                4297,
                4277,
                4986,
                4501,
                4677,
                4731,
                4870,
                4791,
                5234,
                5326,
                5444,
                5530,
                6510,
                6085,
                6242,
                6485,
                6522,
                6745,
                6775,
                6614,
                6976,
                7222,
                7271,
                8177,
                8056,
                7894,
                8129,
                8192,
                8306,
                8676,
                10310,
                9772,
                10239,
                10733,
                11353,
                11412,
                11292,
                10505,
                11071,
                12303
            ],
            "TriggerTime": [
                75.0,
                975.0,
                150.0,
                1050.0,
                225.0,
                1125.0,
                300.0,
                1200.0,
                375.0,
                1275.0,
                450.0,
                1350.0,
                525.0,
                1425.0,
                600.0,
                1500.0,
                675.0,
                1575.0,
                750.0,
                1650.0,
                825.0,
                1800.0,
                900.0,
                1725.0,
                75.0,
                975.0,
                150.0,
                1050.0,
                225.0,
                1125.0,
                300.0,
                1200.0,
                375.0,
                1275.0,
                450.0,
                1350.0,
                525.0,
                1425.0,
                600.0,
                1500.0,
                675.0,
                1575.0,
                750.0,
                1650.0,
                825.0,
                1800.0,
                900.0,
                1725.0,
                1875.0,
                2775.0,
                1950.0,
                2850.0,
                2025.0,
                2925.0,
                2100.0,
                3000.0,
                2175.0,
                3075.0,
                2250.0,
                3150.0,
                2325.0,
                3225.0,
                2400.0,
                3300.0,
                2475.0,
                3375.0,
                2550.0,
                3450.0,
                2625.0,
                3600.0,
                2700.0,
                3525.0,
                1875.0,
                2775.0,
                1950.0,
                2850.0,
                2025.0,
                2925.0,
                2100.0,
                3000.0,
                2175.0,
                3075.0,
                2250.0,
                3150.0,
                2325.0,
                3225.0,
                2400.0,
                3300.0,
                2475.0,
                3375.0,
                2550.0,
                3450.0,
                2625.0,
                3600.0,
                2700.0,
                3525.0,
                3675.0,
                4575.0,
                3750.0,
                4650.0,
                3825.0,
                4725.0,
                3900.0,
                4800.0,
                3975.0,
                4875.0,
                4050.0,
                4950.0,
                4125.0,
                5025.0,
                4200.0,
                5100.0,
                4275.0,
                5175.0,
                4350.0,
                5250.0,
                4425.0,
                5400.0,
                4500.0,
                5325.0,
                3675.0,
                4575.0,
                3750.0,
                4650.0,
                3825.0,
                4725.0,
                3900.0,
                4800.0,
                3975.0,
                4875.0,
                4050.0,
                4950.0,
                4125.0,
                5025.0,
                4200.0,
                5100.0,
                4275.0,
                5175.0,
                4350.0,
                5250.0,
                4425.0,
                5400.0,
                4500.0,
                5325.0,
                5475.0,
                6375.0,
                5550.0,
                6450.0,
                5625.0,
                6525.0,
                5700.0,
                6600.0,
                5775.0,
                6675.0,
                5850.0,
                6750.0,
                5925.0,
                6825.0,
                6000.0,
                6900.0,
                6075.0,
                6975.0,
                6150.0,
                7050.0,
                6225.0,
                7200.0,
                6300.0,
                7125.0,
                5475.0,
                6375.0,
                5550.0,
                6450.0,
                5625.0,
                6525.0,
                5700.0,
                6600.0,
                5775.0,
                6675.0,
                5850.0,
                6750.0,
                5925.0,
                6825.0,
                6000.0,
                6900.0,
                6075.0,
                6975.0,
                6150.0,
                7050.0,
                6225.0,
                7200.0,
                6300.0,
                7125.0,
                7275.0,
                8175.0,
                7350.0,
                8250.0,
                7425.0,
                8325.0,
                7500.0,
                8400.0,
                7575.0,
                8475.0,
                7650.0,
                8550.0,
                7725.0,
                8625.0,
                7800.0,
                8700.0,
                7875.0,
                8775.0,
                7950.0,
                8850.0,
                8025.0,
                9000.0,
                8100.0,
                8925.0,
                7275.0,
                8175.0,
                7350.0,
                8250.0,
                7425.0,
                8325.0,
                7500.0,
                8400.0,
                7575.0,
                8475.0,
                7650.0,
                8550.0,
                7725.0,
                8625.0,
                7800.0,
                8700.0,
                7875.0,
                8775.0,
                7950.0,
                8850.0,
                8025.0,
                9000.0,
                8100.0,
                8925.0,
                9075.0,
                9975.0,
                9150.0,
                10050.0,
                9225.0,
                10125.0,
                9300.0,
                10200.0,
                9375.0,
                10275.0,
                9450.0,
                10350.0,
                9525.0,
                10425.0,
                9600.0,
                10500.0,
                9675.0,
                10575.0,
                9750.0,
                10650.0,
                9825.0,
                10800.0,
                9900.0,
                10725.0,
                9075.0,
                9975.0,
                9150.0,
                10050.0,
                9225.0,
                10125.0,
                9300.0,
                10200.0,
                9375.0,
                10275.0,
                9450.0,
                10350.0,
                9525.0,
                10425.0,
                9600.0,
                10500.0,
                9675.0,
                10575.0,
                9750.0,
                10650.0,
                9825.0,
                10800.0,
                9900.0,
                10725.0
            ],
            "WindowCenter": [
                4476.0,
                4311.0,
                4416.0,
                3639.0,
                3486.0,
                3387.0,
                3375.0,
                3477.0,
                3855.0,
                3343.0,
                4330.0,
                3655.0,
                3916.0,
                3664.0,
                3840.0,
                3872.0,
                4132.0,
                3827.0,
                4215.0,
                4312.0,
                5213.0,
                4789.0,
                4932.0,
                4956.0,
                5534.0,
                5224.0,
                5472.0,
                5056.0,
                5555.0,
                5591.0,
                5872.0,
                6093.0,
                6334.0,
                6301.0,
                6824.0,
                6554.0,
                6931.0,
                6912.0,
                8733.0,
                7861.0,
                8495.0,
                8720.0,
                9583.0,
                8722.0,
                9409.0,
                8403.0,
                9440.0,
                9348.0,
                4281.0,
                3671.0,
                3419.0,
                3221.0,
                2918.0,
                2598.0,
                2541.0,
                2639.0,
                2708.0,
                2704.0,
                3441.0,
                2937.0,
                3141.0,
                3165.0,
                3048.0,
                3211.0,
                3288.0,
                3306.0,
                3379.0,
                3669.0,
                4225.0,
                3952.0,
                4230.0,
                4268.0,
                4429.0,
                4190.0,
                4459.0,
                4331.0,
                4639.0,
                4822.0,
                4951.0,
                5348.0,
                5439.0,
                5402.0,
                5380.0,
                5343.0,
                5378.0,
                5819.0,
                7080.0,
                6507.0,
                6939.0,
                7290.0,
                7853.0,
                7603.0,
                7643.0,
                7042.0,
                7709.0,
                8065.0,
                3155.0,
                3536.0,
                2513.0,
                2584.0,
                2476.0,
                2378.0,
                2407.0,
                2374.0,
                2647.0,
                2562.0,
                3142.0,
                2773.0,
                2940.0,
                2946.0,
                2950.0,
                3001.0,
                3151.0,
                3226.0,
                3323.0,
                3474.0,
                4053.0,
                3671.0,
                3912.0,
                4004.0,
                3921.0,
                4043.0,
                4069.0,
                4060.0,
                4353.0,
                4530.0,
                4575.0,
                5005.0,
                5052.0,
                5055.0,
                5011.0,
                5049.0,
                5067.0,
                5355.0,
                6067.0,
                6047.0,
                6362.0,
                6604.0,
                7095.0,
                7126.0,
                7065.0,
                6619.0,
