{
    "AcquisitionMatrixPE": 88,
    "AcquisitionNumber": 1,
    "AcquisitionTime": "10:06:48.000000",
    "BodyPartExamined": "BRAIN",
    "CoilString": "48HAP",
    "ConversionSoftware": "dcm2niix",
    "ConversionSoftwareVersion": "v1.0.20190410  GCC6.3.0",
    "DeviceSerialNumber": "0000000319335MR2",
    "EchoTime": 0.03,
    "EffectiveEchoSpacing": 0.000564,
    "FlipAngle": 75,
    "ImageOrientationPatientDICOM": [
        1,
        0,
        0,
        0,
        0.986735,
        -0.16234
    ],
    "ImageType": [
        "ORIGINAL",
        "PRIMARY",
        "OTHER"
    ],
    "ImagingFrequency": 127.754,
    "InPlanePhaseEncodingDirectionDICOM": "COL",
    "InstitutionName": "Iowa_MRRF",
    "IntendedFor": [
        "func/sub-10176_task-ThalHi_run-005_bold.nii.gz",
        "func/sub-10176_task-ThalHi_run-006_bold.nii.gz",
        "func/sub-10176_task-ThalHi_run-007_bold.nii.gz",
        "func/sub-10176_task-ThalHi_run-008_bold.nii.gz"
    ],
    "MRAcquisitionType": "2D",
    "MagneticFieldStrength": 3,
    "Manufacturer": "GE",
    "ManufacturersModelName": "SIGNA_Premier",
    "Modality": "MR",
    "PatientPosition": "HFS",
    "PercentPhaseFOV": 100,
    "PhaseEncodingDirection": "j",
    "PhaseEncodingPolarityGE": "Flipped",
    "PixelBandwidth": 3906.25,
    "ProcedureStepDescription": "HWANG_NET",
    "ProtocolName": "EPI_FM_pepolar=0",
    "ReconMatrixPE": 128,
    "RepetitionTime": 1.8,
    "SAR": 0.0702132,
    "ScanOptions": "SAT_GEMS_EDR_GEMS_MP_GEMS_EPI_GEMS_HYPERBAND_GEMS_FS",
    "ScanningSequence": "EP_GR",
    "SequenceVariant": "SS",
    "SeriesDescription": "EPI_FM_pepolar=0",
    "SeriesNumber": 10,
    "SliceThickness": 2.5,
    "SliceTiming": [
        0,
        0.9,
        0.075,
        0.975,
        0.15,
        1.05,
        0.225,
        1.125,
        0.3,
        1.2,
        0.375,
        1.275,
        0.45,
        1.35,
        0.525,
        1.425,
        0.6,
        1.5,
        0.675,
        1.575,
        0.75,
        1.725,
        0.825,
        1.65,
        0,
        0.9,
        0.075,
        0.975,
        0.15,
        1.05,
        0.225,
        1.125,
        0.3,
        1.2,
        0.375,
        1.275,
        0.45,
        1.35,
        0.525,
        1.425,
        0.6,
        1.5,
        0.675,
        1.575,
        0.75,
        1.725,
        0.825,
        1.65
    ],
    "SoftwareVersions": "28_LX_MR_Software_release:RX28.0_R05_2035.a",
    "SpacingBetweenSlices": 2.5,
    "StationName": "Iowa3T",
    "TotalReadoutTime": 0.071628,
    "TriggerDelayTime": 10650,
    "dcmmeta_affine": [
        [
            -1.7187999486923218,
            0.0,
            0.0,
            108.34646606445312
        ],
        [
            0.0,
            1.6959997415542603,
            -0.405853271484375,
            -111.12954711914062
        ],
        [
            0.0,
            0.2790306806564331,
            2.4668350219726562,
            -49.91834259033203
        ],
        [
            0.0,
            0.0,
            0.0,
            1.0
        ]
    ],
    "dcmmeta_reorient_transform": [
        [
            0.0,
            -1.0,
            0.0,
            127.0
        ],
        [
            1.0,
            0.0,
            0.0,
            0.0
        ],
        [
            0.0,
            0.0,
            -1.0,
            47.0
        ],
        [
            0.0,
            0.0,
            0.0,
            1.0
        ]
    ],
    "dcmmeta_shape": [
        128,
        128,
        48,
        6
    ],
    "dcmmeta_slice_dim": 2,
    "dcmmeta_version": 0.6,
    "global": {
        "const": {
            "AcquisitionMatrix": [
                88,
                0,
                0,
                88
            ],
            "AcquisitionNumber": 1,
            "AcquisitionTime": "100648",
            "AnatomicRegionSequence": [
                {
                    "CodeMeaning": "Brain",
                    "CodeValue": "T-A0100",
                    "CodingSchemeDesignator": "SRT"
                }
            ],
            "AngioFlag": "N",
            "BeatRejectionFlag": "Y",
            "BitsAllocated": 16,
            "BitsStored": 16,
            "BodyPartExamined": "BRAIN",
            "CardiacNumberOfImages": 0,
            "Columns": 128,
            "ContentTime": "100648",
            "EchoNumbers": 1,
            "EchoTime": 30.0,
            "EchoTrainLength": 1,
            "FlipAngle": 75.0,
            "GroupLength_0X40_0X0": 98,
            "GroupLength_0X7FE0_0X0": 32780,
            "HeartRate": 0,
            "HighBit": 15,
            "ImageType": [
                "ORIGINAL",
                "PRIMARY",
                "OTHER"
            ],
            "ImagedNucleus": "1H",
            "ImagesInAcquisition": 288,
            "ImagingFrequency": 127.753618,
            "InPlanePhaseEncodingDirection": "COL",
            "MRAcquisitionType": "2D",
            "MagneticFieldStrength": 3.0,
            "Manufacturer": "GE MEDICAL SYSTEMS",
            "ManufacturerModelName": "SIGNA Premier",
            "Modality": "MR",
            "NumberOfAverages": 1.0,
            "NumberOfTemporalPositions": 6,
            "PercentPhaseFieldOfView": 100.0,
            "PercentSampling": 100.0,
            "PerformedLocation": "Iowa",
            "PerformedProcedureStepStartTime": "092804",
            "PhotometricInterpretation": "MONOCHROME2",
            "PixelBandwidth": 3906.25,
            "PixelRepresentation": 1,
            "PixelSpacing": [
                1.7188,
                1.7188
            ],
            "ProtocolName": "HWANG_NET_THALHI",
            "ReceiveCoilName": "48HAP",
            "ReconstructionDiameter": 220.0,
            "ReferencedPerformedProcedureStepSequence": [
                {
                    "ReferencedSOPClassUID": "1.2.840.10008.3.1.2.3.3",
                    "ReferencedSOPInstanceUID": "1.2.840.113619.6.475.258849513765442702597783365352746555223"
                }
            ],
            "RepetitionTime": 1800.0,
            "Rows": 128,
            "SAR": 0.0702132,
            "SamplesPerPixel": 1,
            "ScanOptions": [
                "SAT_GEMS",
                "EDR_GEMS",
                "MP_GEMS",
                "EPI_GEMS",
                "HYPERBAND_GEMS",
                "FS"
            ],
            "ScanningSequence": [
                "EP",
                "GR"
            ],
            "SequenceVariant": "SS",
            "SeriesDescription": "EPI FM pepolar=0",
            "SeriesNumber": 10,
            "SeriesTime": "100648",
            "SliceThickness": 2.5,
            "SmallestImagePixelValue": 0,
            "SoftwareVersions": [
                "28",
                "LX",
                "MR Software release:RX28.0_R05_2035.a"
            ],
            "SpacingBetweenSlices": 2.5,
            "SpecificCharacterSet": "ISO_IR 100",
            "StackID": "1",
            "StudyID": "2695",
            "StudyTime": "092811",
            "TriggerWindow": 0,
            "VariableFlipAngleFlag": "N"
        },
        "slices": {
            "InstanceNumber": [
                1,
                2,
                3,
                4,
                5,
                6,
                7,
                8,
                9,
                10,
                11,
                12,
                13,
                14,
                15,
                16,
                17,
                18,
                19,
                20,
                21,
                22,
                23,
                24,
                25,
                26,
                27,
                28,
                29,
                30,
                31,
                32,
                33,
                34,
                35,
                36,
                37,
                38,
                39,
                40,
                41,
                42,
                43,
                44,
                45,
                46,
                47,
                48,
                49,
                50,
                51,
                52,
                53,
                54,
                55,
                56,
                57,
                58,
                59,
                60,
                61,
                62,
                63,
                64,
                65,
                66,
                67,
                68,
                69,
                70,
                71,
                72,
                73,
                74,
                75,
                76,
                77,
                78,
                79,
                80,
                81,
                82,
                83,
                84,
                85,
                86,
                87,
                88,
                89,
                90,
                91,
                92,
                93,
                94,
                95,
                96,
                97,
                98,
                99,
                100,
                101,
                102,
                103,
                104,
                105,
                106,
                107,
                108,
                109,
                110,
                111,
                112,
                113,
                114,
                115,
                116,
                117,
                118,
                119,
                120,
                121,
                122,
                123,
                124,
                125,
                126,
                127,
                128,
                129,
                130,
                131,
                132,
                133,
                134,
                135,
                136,
                137,
                138,
                139,
                140,
                141,
                142,
                143,
                144,
                145,
                146,
                147,
                148,
                149,
                150,
                151,
                152,
                153,
                154,
                155,
                156,
                157,
                158,
                159,
                160,
                161,
                162,
                163,
                164,
                165,
                166,
                167,
                168,
                169,
                170,
                171,
                172,
                173,
                174,
                175,
                176,
                177,
                178,
                179,
                180,
                181,
                182,
                183,
                184,
                185,
                186,
                187,
                188,
                189,
                190,
                191,
                192,
                193,
                194,
                195,
                196,
                197,
                198,
                199,
                200,
                201,
                202,
                203,
                204,
                205,
                206,
                207,
                208,
                209,
                210,
                211,
                212,
                213,
                214,
                215,
                216,
                217,
                218,
                219,
                220,
                221,
                222,
                223,
                224,
                225,
                226,
                227,
                228,
                229,
                230,
                231,
                232,
                233,
                234,
                235,
                236,
                237,
                238,
                239,
                240,
                241,
                242,
                243,
                244,
                245,
                246,
                247,
                248,
                249,
                250,
                251,
                252,
                253,
                254,
                255,
                256,
                257,
                258,
                259,
                260,
                261,
                262,
                263,
                264,
                265,
                266,
                267,
                268,
                269,
                270,
                271,
                272,
                273,
                274,
                275,
                276,
                277,
                278,
                279,
                280,
                281,
                282,
                283,
                284,
                285,
                286,
                287,
                288
            ],
            "LargestImagePixelValue": [
                6286,
                5773,
                5928,
                5572,
                6066,
                6134,
                5660,
                7203,
                6952,
                6144,
                7195,
                7088,
                6908,
                6928,
                6983,
                7128,
                7769,
                6985,
                7891,
                6918,
                8090,
                8352,
                8940,
                9504,
                9322,
                8414,
                9916,
                9650,
                10060,
                9001,
                9512,
                9737,
                10141,
                10996,
                11182,
                10691,
                11333,
                11553,
                11675,
                11287,
                11896,
                11874,
                12886,
                13062,
                12971,
                12452,
                12050,
                11525,
                5243,
                5298,
                4784,
                4134,
                4984,
                5478,
                6926,
                6265,
                7642,
                5189,
                5437,
                5558,
                5621,
                5741,
                5748,
                5897,
                6237,
                5777,
                6413,
                5910,
                6898,
                7112,
                7618,
                8137,
                7632,
                7354,
                8354,
                8603,
                8988,
                7751,
                8148,
                8305,
                8900,
                9288,
                9714,
                9144,
                8811,
                9547,
                9574,
                9434,
                9687,
                9981,
                10821,
                10965,
                10655,
                10517,
                10144,
                9788,
                5413,
                4758,
                3975,
                3555,
                4153,
                4653,
                6158,
                5945,
                6686,
                5065,
                5077,
                5306,
                5140,
                5399,
                5394,
                5524,
                5482,
                5555,
                5931,
                5785,
                6501,
                6799,
                7041,
                7757,
                7014,
                6737,
                7723,
                8024,
                8559,
                7379,
                7647,
                7754,
                8314,
                9052,
                9077,
                8430,
                8272,
                9009,
                8980,
                8823,
                9001,
                9370,
                10048,
                10220,
                9889,
                9364,
                9465,
                9247,
                5704,
                5497,
                3871,
                3542,
                4136,
                4303,
                5342,
                5695,
                6141,
                4989,
                5013,
                5041,
                5111,
                5178,
                5280,
                5403,
                5703,
                5470,
                5803,
                5767,
                6333,
                6398,
                6879,
                7561,
                6781,
                6630,
                7788,
                7894,
                8175,
                7202,
                7480,
                7665,
                8111,
                8733,
                8871,
                8473,
                8053,
                8765,
                8736,
                8633,
                8889,
                9143,
                9748,
                10000,
                9573,
                9659,
                9051,
                9017,
                5624,
                6073,
                3698,
                3505,
                3994,
                4319,
                5358,
                5567,
                5902,
                5019,
                4862,
                4927,
                5119,
                5036,
                5100,
                5325,
                5450,
                5443,
                5831,
                5666,
                6180,
                6574,
                6845,
                7498,
                6676,
                6594,
                7608,
                7836,
                7985,
                7106,
                7412,
                7605,
                8000,
                8663,
                8763,
                8383,
                7999,
                8453,
                8610,
                8556,
                8670,
                9046,
                9641,
                9886,
                9594,
                9513,
                9006,
                8881,
                6180,
                5651,
                4048,
                3701,
                4163,
                4835,
                5351,
                6540,
                5618,
                4917,
                4877,
                4985,
                5076,
                5114,
                5146,
                5337,
                5444,
                5449,
                5983,
                5607,
                6219,
                6470,
                6792,
                7395,
                6540,
                6527,
                7656,
                7712,
                7862,
                7015,
                7278,
                7619,
                7970,
                8368,
                8716,
                8357,
                7869,
                8655,
                8575,
                8586,
                8622,
                8978,
                9602,
                9782,
                9442,
                9467,
                9077,
                8895
            ],
            "TriggerTime": [
                75.0,
                975.0,
                150.0,
                1050.0,
                225.0,
                1125.0,
                300.0,
                1200.0,
                375.0,
                1275.0,
                450.0,
                1350.0,
                525.0,
                1425.0,
                600.0,
                1500.0,
                675.0,
                1575.0,
                750.0,
                1650.0,
                825.0,
                1800.0,
                900.0,
                1725.0,
                75.0,
                975.0,
                150.0,
                1050.0,
                225.0,
                1125.0,
                300.0,
                1200.0,
                375.0,
                1275.0,
                450.0,
                1350.0,
                525.0,
                1425.0,
                600.0,
                1500.0,
                675.0,
                1575.0,
                750.0,
                1650.0,
                825.0,
                1800.0,
                900.0,
                1725.0,
                1875.0,
                2775.0,
                1950.0,
                2850.0,
                2025.0,
                2925.0,
                2100.0,
                3000.0,
                2175.0,
                3075.0,
                2250.0,
                3150.0,
                2325.0,
                3225.0,
                2400.0,
                3300.0,
                2475.0,
                3375.0,
                2550.0,
                3450.0,
                2625.0,
                3600.0,
                2700.0,
                3525.0,
                1875.0,
                2775.0,
                1950.0,
                2850.0,
                2025.0,
                2925.0,
                2100.0,
                3000.0,
                2175.0,
                3075.0,
                2250.0,
                3150.0,
                2325.0,
                3225.0,
                2400.0,
                3300.0,
                2475.0,
                3375.0,
                2550.0,
                3450.0,
                2625.0,
                3600.0,
                2700.0,
                3525.0,
                3675.0,
                4575.0,
                3750.0,
                4650.0,
                3825.0,
                4725.0,
                3900.0,
                4800.0,
                3975.0,
                4875.0,
                4050.0,
                4950.0,
                4125.0,
                5025.0,
                4200.0,
                5100.0,
                4275.0,
                5175.0,
                4350.0,
                5250.0,
                4425.0,
                5400.0,
                4500.0,
                5325.0,
                3675.0,
                4575.0,
                3750.0,
                4650.0,
                3825.0,
                4725.0,
                3900.0,
                4800.0,
                3975.0,
                4875.0,
                4050.0,
                4950.0,
                4125.0,
                5025.0,
                4200.0,
                5100.0,
                4275.0,
                5175.0,
                4350.0,
                5250.0,
                4425.0,
                5400.0,
                4500.0,
                5325.0,
                5475.0,
                6375.0,
                5550.0,
                6450.0,
                5625.0,
                6525.0,
                5700.0,
                6600.0,
                5775.0,
                6675.0,
                5850.0,
                6750.0,
                5925.0,
                6825.0,
                6000.0,
                6900.0,
                6075.0,
                6975.0,
                6150.0,
                7050.0,
                6225.0,
                7200.0,
                6300.0,
                7125.0,
                5475.0,
                6375.0,
                5550.0,
                6450.0,
                5625.0,
                6525.0,
                5700.0,
                6600.0,
                5775.0,
                6675.0,
                5850.0,
                6750.0,
                5925.0,
                6825.0,
                6000.0,
                6900.0,
                6075.0,
                6975.0,
                6150.0,
                7050.0,
                6225.0,
                7200.0,
                6300.0,
                7125.0,
                7275.0,
                8175.0,
                7350.0,
                8250.0,
                7425.0,
                8325.0,
                7500.0,
                8400.0,
                7575.0,
                8475.0,
                7650.0,
                8550.0,
                7725.0,
                8625.0,
                7800.0,
                8700.0,
                7875.0,
                8775.0,
                7950.0,
                8850.0,
                8025.0,
                9000.0,
                8100.0,
                8925.0,
                7275.0,
                8175.0,
                7350.0,
                8250.0,
                7425.0,
                8325.0,
                7500.0,
                8400.0,
                7575.0,
                8475.0,
                7650.0,
                8550.0,
                7725.0,
                8625.0,
                7800.0,
                8700.0,
                7875.0,
                8775.0,
                7950.0,
                8850.0,
                8025.0,
                9000.0,
                8100.0,
                8925.0,
                9075.0,
                9975.0,
                9150.0,
                10050.0,
                9225.0,
                10125.0,
                9300.0,
                10200.0,
                9375.0,
                10275.0,
                9450.0,
                10350.0,
                9525.0,
                10425.0,
                9600.0,
                10500.0,
                9675.0,
                10575.0,
                9750.0,
                10650.0,
                9825.0,
                10800.0,
                9900.0,
                10725.0,
                9075.0,
                9975.0,
                9150.0,
                10050.0,
                9225.0,
                10125.0,
                9300.0,
                10200.0,
                9375.0,
                10275.0,
                9450.0,
                10350.0,
                9525.0,
                10425.0,
                9600.0,
                10500.0,
                9675.0,
                10575.0,
                9750.0,
                10650.0,
                9825.0,
                10800.0,
                9900.0,
                10725.0
            ],
            "WindowCenter": [
                3771.0,
                3463.0,
                3556.0,
                3343.0,
                3639.0,
                3680.0,
                3396.0,
                4321.0,
                4171.0,
                3686.0,
                4317.0,
                4252.0,
                4144.0,
                4156.0,
                4189.0,
                4276.0,
                4661.0,
                4191.0,
                4734.0,
                4150.0,
                4854.0,
                5011.0,
                5364.0,
                5702.0,
                5593.0,
                5048.0,
                5949.0,
                5790.0,
                6036.0,
                5400.0,
                5707.0,
                5842.0,
                6084.0,
                6597.0,
                6709.0,
                6414.0,
                6799.0,
                6931.0,
                7005.0,
                6772.0,
                7137.0,
                7124.0,
                7731.0,
                7837.0,
                7782.0,
                7471.0,
                7230.0,
                6915.0,
                3145.0,
                3178.0,
                2870.0,
                2480.0,
                2990.0,
                3286.0,
                4155.0,
                3759.0,
                4585.0,
                3113.0,
                3262.0,
                3334.0,
                3372.0,
                3444.0,
                3448.0,
                3538.0,
                3742.0,
                3466.0,
                3847.0,
                3546.0,
                4138.0,
                4267.0,
                4570.0,
                4882.0,
                4579.0,
                4412.0,
                5012.0,
                5161.0,
                5392.0,
                4650.0,
                4888.0,
                4983.0,
                5340.0,
                5572.0,
                5828.0,
                5486.0,
                5286.0,
                5728.0,
                5744.0,
                5660.0,
                5812.0,
                5988.0,
                6492.0,
                6579.0,
                6393.0,
                6310.0,
                6086.0,
                5872.0,
                3247.0,
                2854.0,
                2385.0,
                2133.0,
                2491.0,
                2791.0,
                3694.0,
                3567.0,
                4011.0,
                3039.0,
                3046.0,
                3183.0,
                3084.0,
                3239.0,
                3236.0,
                3314.0,
                3289.0,
                3333.0,
                3558.0,
                3471.0,
                3900.0,
                4079.0,
                4224.0,
                4654.0,
                4208.0,
                4042.0,
                4633.0,
                4814.0,
                5135.0,
                4427.0,
                4588.0,
                4652.0,
                4988.0,
                5431.0,
                5446.0,
                5058.0,
                4963.0,
                5405.0,
                5388.0,
                5293.0,
                5400.0,
                5622.0,
                6028.0,
                6132.0,
                5933.0,
                5618.0,
                5679.0,
                5548.0,
