{
    "AcquisitionMatrixPE": 88,
    "AcquisitionNumber": 1,
    "AcquisitionTime": "09:40:54.000000",
    "BodyPartExamined": "BRAIN",
    "CoilString": "48HAP",
    "ConversionSoftware": "dcm2niix",
    "ConversionSoftwareVersion": "v1.0.20190410  GCC6.3.0",
    "DeviceSerialNumber": "0000000319335MR2",
    "EchoTime": 0.03,
    "EffectiveEchoSpacing": 0.000564,
    "FlipAngle": 75,
    "ImageOrientationPatientDICOM": [
        1,
        0,
        0,
        0,
        1,
        0
    ],
    "ImageType": [
        "ORIGINAL",
        "PRIMARY",
        "OTHER"
    ],
    "ImagingFrequency": 127.753,
    "InPlanePhaseEncodingDirectionDICOM": "COL",
    "InstitutionName": "Iowa_MRRF",
    "IntendedFor": [
        "func/sub-10173_task-ThalHi_run-001_bold.nii.gz",
        "func/sub-10173_task-ThalHi_run-002_bold.nii.gz",
        "func/sub-10173_task-ThalHi_run-003_bold.nii.gz",
        "func/sub-10173_task-ThalHi_run-004_bold.nii.gz"
    ],
    "MRAcquisitionType": "2D",
    "MagneticFieldStrength": 3,
    "Manufacturer": "GE",
    "ManufacturersModelName": "SIGNA_Premier",
    "Modality": "MR",
    "PatientPosition": "HFS",
    "PercentPhaseFOV": 100,
    "PhaseEncodingDirection": "j",
    "PhaseEncodingPolarityGE": "Flipped",
    "PixelBandwidth": 3906.25,
    "ProcedureStepDescription": "HWANG_NET_THALHI",
    "ProtocolName": "EPI_FM_pepolar=0",
    "ReconMatrixPE": 128,
    "RepetitionTime": 1.8,
    "SAR": 0.075315,
    "ScanOptions": "SAT_GEMS_EDR_GEMS_MP_GEMS_EPI_GEMS_HYPERBAND_GEMS_FS",
    "ScanningSequence": "EP_GR",
    "SequenceVariant": "SS",
    "SeriesDescription": "EPI_FM_pepolar=0",
    "SeriesNumber": 4,
    "SliceThickness": 2.5,
    "SliceTiming": [
        0,
        0.9,
        0.075,
        0.975,
        0.15,
        1.05,
        0.225,
        1.125,
        0.3,
        1.2,
        0.375,
        1.275,
        0.45,
        1.35,
        0.525,
        1.425,
        0.6,
        1.5,
        0.675,
        1.575,
        0.75,
        1.725,
        0.825,
        1.65,
        0,
        0.9,
        0.075,
        0.975,
        0.15,
        1.05,
        0.225,
        1.125,
        0.3,
        1.2,
        0.375,
        1.275,
        0.45,
        1.35,
        0.525,
        1.425,
        0.6,
        1.5,
        0.675,
        1.575,
        0.75,
        1.725,
        0.825,
        1.65
    ],
    "SoftwareVersions": "28_LX_MR_Software_release:RX28.0_R05_2035.a",
    "SpacingBetweenSlices": 2.5,
    "StationName": "Iowa3T",
    "TotalReadoutTime": 0.071628,
    "TriggerDelayTime": 10650,
    "dcmmeta_affine": [
        [
            -1.7187999486923218,
            0.0,
            0.0,
            106.78379821777344
        ],
        [
            0.0,
            1.7187999486923218,
            0.0,
            -119.77099609375
        ],
        [
            0.0,
            0.0,
            2.5,
            -42.82360076904297
        ],
        [
            0.0,
            0.0,
            0.0,
            1.0
        ]
    ],
    "dcmmeta_reorient_transform": [
        [
            0.0,
            -1.0,
            0.0,
            127.0
        ],
        [
            1.0,
            0.0,
            0.0,
            0.0
        ],
        [
            0.0,
            0.0,
            -1.0,
            47.0
        ],
        [
            0.0,
            0.0,
            0.0,
            1.0
        ]
    ],
    "dcmmeta_shape": [
        128,
        128,
        48,
        6
    ],
    "dcmmeta_slice_dim": 2,
    "dcmmeta_version": 0.6,
    "global": {
        "const": {
            "AcquisitionMatrix": [
                88,
                0,
                0,
                88
            ],
            "AcquisitionNumber": 1,
            "AcquisitionTime": "094054",
            "AnatomicRegionSequence": [
                {
                    "CodeMeaning": "Brain",
                    "CodeValue": "T-A0100",
                    "CodingSchemeDesignator": "SRT"
                }
            ],
            "AngioFlag": "N",
            "BeatRejectionFlag": "Y",
            "BitsAllocated": 16,
            "BitsStored": 16,
            "BodyPartExamined": "BRAIN",
            "CardiacNumberOfImages": 0,
            "Columns": 128,
            "ContentTime": "094054",
            "EchoNumbers": 1,
            "EchoTime": 30.0,
            "EchoTrainLength": 1,
            "FlipAngle": 75.0,
            "HeartRate": 0,
            "HighBit": 15,
            "ImageOrientationPatient": [
                1.0,
                -0.0,
                0.0,
                -0.0,
                1.0,
                0.0
            ],
            "ImageType": [
                "ORIGINAL",
                "PRIMARY",
                "OTHER"
            ],
            "ImagedNucleus": "1H",
            "ImagesInAcquisition": 288,
            "ImagingFrequency": 127.753468,
            "InPlanePhaseEncodingDirection": "COL",
            "MRAcquisitionType": "2D",
            "MagneticFieldStrength": 3.0,
            "Manufacturer": "GE MEDICAL SYSTEMS",
            "ManufacturerModelName": "SIGNA Premier",
            "Modality": "MR",
            "NumberOfAverages": 1.0,
            "NumberOfTemporalPositions": 6,
            "PercentPhaseFieldOfView": 100.0,
            "PercentSampling": 100.0,
            "PerformedLocation": "Iowa",
            "PerformedProcedureStepStartTime": "093030",
            "PhotometricInterpretation": "MONOCHROME2",
            "PixelBandwidth": 3906.25,
            "PixelRepresentation": 1,
            "PixelSpacing": [
                1.7188,
                1.7188
            ],
            "ProtocolName": "HWANG_NET_THALHI",
            "ReceiveCoilName": "48HAP",
            "ReconstructionDiameter": 220.0,
            "ReferencedPerformedProcedureStepSequence": [
                {
                    "ReferencedSOPClassUID": "1.2.840.10008.3.1.2.3.3",
                    "ReferencedSOPInstanceUID": "1.2.840.113619.6.475.201346703052838201958051927176395727167"
                }
            ],
            "RepetitionTime": 1800.0,
            "Rows": 128,
            "SAR": 0.075315,
            "SamplesPerPixel": 1,
            "ScanOptions": [
                "SAT_GEMS",
                "EDR_GEMS",
                "MP_GEMS",
                "EPI_GEMS",
                "HYPERBAND_GEMS",
                "FS"
            ],
            "ScanningSequence": [
                "EP",
                "GR"
            ],
            "SequenceVariant": "SS",
            "SeriesDescription": "EPI FM pepolar=0",
            "SeriesNumber": 4,
            "SeriesTime": "094054",
            "SliceThickness": 2.5,
            "SmallestImagePixelValue": 0,
            "SoftwareVersions": [
                "28",
                "LX",
                "MR Software release:RX28.0_R05_2035.a"
            ],
            "SpacingBetweenSlices": 2.5,
            "SpecificCharacterSet": "ISO_IR 100",
            "StackID": "1",
            "StudyID": "2490",
            "StudyTime": "093144",
            "TriggerWindow": 0,
            "VariableFlipAngleFlag": "N"
        },
        "slices": {
            "InstanceNumber": [
                1,
                2,
                3,
                4,
                5,
                6,
                7,
                8,
                9,
                10,
                11,
                12,
                13,
                14,
                15,
                16,
                17,
                18,
                19,
                20,
                21,
                22,
                23,
                24,
                25,
                26,
                27,
                28,
                29,
                30,
                31,
                32,
                33,
                34,
                35,
                36,
                37,
                38,
                39,
                40,
                41,
                42,
                43,
                44,
                45,
                46,
                47,
                48,
                49,
                50,
                51,
                52,
                53,
                54,
                55,
                56,
                57,
                58,
                59,
                60,
                61,
                62,
                63,
                64,
                65,
                66,
                67,
                68,
                69,
                70,
                71,
                72,
                73,
                74,
                75,
                76,
                77,
                78,
                79,
                80,
                81,
                82,
                83,
                84,
                85,
                86,
                87,
                88,
                89,
                90,
                91,
                92,
                93,
                94,
                95,
                96,
                97,
                98,
                99,
                100,
                101,
                102,
                103,
                104,
                105,
                106,
                107,
                108,
                109,
                110,
                111,
                112,
                113,
                114,
                115,
                116,
                117,
                118,
                119,
                120,
                121,
                122,
                123,
                124,
                125,
                126,
                127,
                128,
                129,
                130,
                131,
                132,
                133,
                134,
                135,
                136,
                137,
                138,
                139,
                140,
                141,
                142,
                143,
                144,
                145,
                146,
                147,
                148,
                149,
                150,
                151,
                152,
                153,
                154,
                155,
                156,
                157,
                158,
                159,
                160,
                161,
                162,
                163,
                164,
                165,
                166,
                167,
                168,
                169,
                170,
                171,
                172,
                173,
                174,
                175,
                176,
                177,
                178,
                179,
                180,
                181,
                182,
                183,
                184,
                185,
                186,
                187,
                188,
                189,
                190,
                191,
                192,
                193,
                194,
                195,
                196,
                197,
                198,
                199,
                200,
                201,
                202,
                203,
                204,
                205,
                206,
                207,
                208,
                209,
                210,
                211,
                212,
                213,
                214,
                215,
                216,
                217,
                218,
                219,
                220,
                221,
                222,
                223,
                224,
                225,
                226,
                227,
                228,
                229,
                230,
                231,
                232,
                233,
                234,
                235,
                236,
                237,
                238,
                239,
                240,
                241,
                242,
                243,
                244,
                245,
                246,
                247,
                248,
                249,
                250,
                251,
                252,
                253,
                254,
                255,
                256,
                257,
                258,
                259,
                260,
                261,
                262,
                263,
                264,
                265,
                266,
                267,
                268,
                269,
                270,
                271,
                272,
                273,
                274,
                275,
                276,
                277,
                278,
                279,
                280,
                281,
                282,
                283,
                284,
                285,
                286,
                287,
                288
            ],
            "LargestImagePixelValue": [
                5246,
                3936,
                4813,
                4473,
                4965,
                4452,
                5085,
                4865,
                6972,
                6957,
                8121,
                7815,
                5894,
                4735,
                5415,
                4776,
                5551,
                5454,
                5655,
                5777,
                6050,
                6256,
                6422,
                5929,
                7713,
                6398,
                7135,
                6233,
                6844,
                6362,
                7475,
                7374,
                7814,
                7395,
                8001,
                8381,
                8042,
                7577,
                9177,
                8988,
                8315,
                7326,
                7175,
                7428,
                8202,
                6029,
                5406,
                4890,
                3613,
                3309,
                3507,
                3843,
                3916,
                3768,
                3977,
                3941,
                5843,
                5851,
                6308,
                6413,
                5057,
                4122,
                4133,
                4083,
                4427,
                4673,
                4656,
                4817,
                4873,
                5109,
                5047,
                5045,
                5247,
                5255,
                5314,
                5319,
                5391,
                5417,
                5950,
                6322,
                6311,
                6369,
                6756,
                7333,
                6907,
                6508,
                7791,
                7761,
                7174,
                6227,
                5841,
                6410,
                6867,
                5083,
                4622,
                4398,
                3581,
                3655,
                3392,
                3753,
                3752,
                3660,
                3844,
                3868,
                5424,
                5476,
                5837,
                5969,
                4588,
                4074,
                4023,
                4154,
                4282,
                4539,
                4449,
                4697,
                4643,
                4868,
                4913,
                5012,
                5011,
                5163,
                5084,
                5098,
                5159,
                5293,
                5910,
                6102,
                5943,
                6014,
                6276,
                6814,
                6092,
                6281,
                7368,
                7309,
                6638,
                5810,
                5521,
                6018,
                6463,
                4884,
                4318,
                4249,
                4516,
                3439,
                3527,
                3755,
                3766,
                3685,
                3814,
                3795,
                5043,
                5290,
                5693,
                5957,
                4297,
                4065,
                3997,
                3992,
                4283,
                4503,
                4455,
                4719,
                4599,
                4941,
                4841,
                4927,
                4984,
                5097,
                5010,
                5031,
                5048,
                5304,
                5714,
                5972,
                5823,
                5879,
                6189,
                6739,
                6317,
                6118,
                7041,
                7127,
                6553,
                5733,
                5403,
                5966,
                6356,
                4814,
                4253,
                4198,
                3437,
                3184,
                3355,
                3716,
                3767,
                3709,
                3809,
                3814,
                4899,
                5236,
                5691,
                5805,
                4311,
                4066,
                4003,
                3953,
                4345,
                4520,
                4412,
                4700,
                4574,
                4876,
                4873,
                4934,
                4973,
                5047,
                5049,
                5036,
                4992,
                5116,
                5754,
                5944,
                5865,
                5860,
                6128,
                6670,
                6268,
                6111,
                7021,
                7051,
                6372,
                5662,
                5385,
                5958,
                6302,
                4795,
                4358,
                4197,
                3434,
                3208,
                3331,
                3734,
                3737,
                3720,
                3802,
                3848,
                5042,
                5177,
                5555,
                5792,
                4518,
                4040,
                3981,
                4189,
                4290,
                4460,
                4398,
                4692,
                4588,
                4827,
                4776,
                4899,
                4957,
                4989,
                5074,
                5066,
                4981,
                5278,
                5676,
                5878,
                5815,
                5895,
                6077,
                6560,
                6285,
                6112,
                6945,
                7028,
                6383,
                5630,
                5297,
                5875,
                6303,
                4765,
                4251,
                4098
            ],
            "TriggerTime": [
                75.0,
                975.0,
                150.0,
                1050.0,
                225.0,
                1125.0,
                300.0,
                1200.0,
                375.0,
                1275.0,
                450.0,
                1350.0,
                525.0,
                1425.0,
                600.0,
                1500.0,
                675.0,
                1575.0,
                750.0,
                1650.0,
                825.0,
                1800.0,
                900.0,
                1725.0,
                75.0,
                975.0,
                150.0,
                1050.0,
                225.0,
                1125.0,
                300.0,
                1200.0,
                375.0,
                1275.0,
                450.0,
                1350.0,
                525.0,
                1425.0,
                600.0,
                1500.0,
                675.0,
                1575.0,
                750.0,
                1650.0,
                825.0,
                1800.0,
                900.0,
                1725.0,
                1875.0,
                2775.0,
                1950.0,
                2850.0,
                2025.0,
                2925.0,
                2100.0,
                3000.0,
                2175.0,
                3075.0,
                2250.0,
                3150.0,
                2325.0,
                3225.0,
                2400.0,
                3300.0,
                2475.0,
                3375.0,
                2550.0,
                3450.0,
                2625.0,
                3600.0,
                2700.0,
                3525.0,
                1875.0,
                2775.0,
                1950.0,
                2850.0,
                2025.0,
                2925.0,
                2100.0,
                3000.0,
                2175.0,
                3075.0,
                2250.0,
                3150.0,
                2325.0,
                3225.0,
                2400.0,
                3300.0,
                2475.0,
                3375.0,
                2550.0,
                3450.0,
                2625.0,
                3600.0,
                2700.0,
                3525.0,
                3675.0,
                4575.0,
                3750.0,
                4650.0,
                3825.0,
                4725.0,
                3900.0,
                4800.0,
                3975.0,
                4875.0,
                4050.0,
                4950.0,
                4125.0,
                5025.0,
                4200.0,
                5100.0,
                4275.0,
                5175.0,
                4350.0,
                5250.0,
                4425.0,
                5400.0,
                4500.0,
                5325.0,
                3675.0,
                4575.0,
                3750.0,
                4650.0,
                3825.0,
                4725.0,
                3900.0,
                4800.0,
                3975.0,
                4875.0,
                4050.0,
                4950.0,
                4125.0,
                5025.0,
                4200.0,
                5100.0,
                4275.0,
                5175.0,
                4350.0,
                5250.0,
                4425.0,
                5400.0,
                4500.0,
                5325.0,
                5475.0,
                6375.0,
                5550.0,
                6450.0,
                5625.0,
                6525.0,
                5700.0,
                6600.0,
                5775.0,
                6675.0,
                5850.0,
                6750.0,
                5925.0,
                6825.0,
                6000.0,
                6900.0,
                6075.0,
                6975.0,
                6150.0,
                7050.0,
                6225.0,
                7200.0,
                6300.0,
                7125.0,
                5475.0,
                6375.0,
                5550.0,
                6450.0,
                5625.0,
                6525.0,
                5700.0,
                6600.0,
                5775.0,
                6675.0,
                5850.0,
                6750.0,
                5925.0,
                6825.0,
                6000.0,
                6900.0,
                6075.0,
                6975.0,
                6150.0,
                7050.0,
                6225.0,
                7200.0,
                6300.0,
                7125.0,
                7275.0,
                8175.0,
                7350.0,
                8250.0,
                7425.0,
                8325.0,
                7500.0,
                8400.0,
                7575.0,
                8475.0,
                7650.0,
                8550.0,
                7725.0,
                8625.0,
                7800.0,
                8700.0,
                7875.0,
                8775.0,
                7950.0,
                8850.0,
                8025.0,
                9000.0,
                8100.0,
                8925.0,
                7275.0,
                8175.0,
                7350.0,
                8250.0,
                7425.0,
                8325.0,
                7500.0,
                8400.0,
                7575.0,
                8475.0,
                7650.0,
                8550.0,
                7725.0,
                8625.0,
                7800.0,
                8700.0,
                7875.0,
                8775.0,
                7950.0,
                8850.0,
                8025.0,
                9000.0,
                8100.0,
                8925.0,
                9075.0,
                9975.0,
                9150.0,
                10050.0,
                9225.0,
                10125.0,
                9300.0,
                10200.0,
                9375.0,
                10275.0,
                9450.0,
                10350.0,
                9525.0,
                10425.0,
                9600.0,
                10500.0,
                9675.0,
                10575.0,
                9750.0,
                10650.0,
                9825.0,
                10800.0,
                9900.0,
                10725.0,
                9075.0,
                9975.0,
                9150.0,
                10050.0,
                9225.0,
                10125.0,
                9300.0,
                10200.0,
                9375.0,
                10275.0,
                9450.0,
                10350.0,
                9525.0,
                10425.0,
                9600.0,
                10500.0,
                9675.0,
                10575.0,
                9750.0,
                10650.0,
                9825.0,
                10800.0,
                9900.0,
                10725.0
            ],
            "WindowCenter": [
                3147.0,
                2361.0,
                2887.0,
                2683.0,
                2979.0,
                2671.0,
                3051.0,
                2919.0,
                4183.0,
                4174.0,
                4872.0,
                4689.0,
                3536.0,
                2841.0,
                3249.0,
                2865.0,
                3330.0,
                3272.0,
                3393.0,
                3466.0,
                3630.0,
                3753.0,
                3853.0,
                3557.0,
                4627.0,
                3838.0,
                4281.0,
                3739.0,
                4106.0,
                3817.0,
                4485.0,
                4424.0,
                4688.0,
                4437.0,
                4800.0,
                5028.0,
                4825.0,
                4546.0,
                5506.0,
                5392.0,
                4989.0,
                4395.0,
                4305.0,
                4456.0,
                4921.0,
                3617.0,
                3243.0,
                2934.0,
                2167.0,
                1985.0,
                2104.0,
                2305.0,
                2349.0,
                2260.0,
                2386.0,
                2364.0,
                3505.0,
                3510.0,
                3784.0,
                3847.0,
                3034.0,
                2473.0,
                2479.0,
                2449.0,
                2656.0,
                2803.0,
                2793.0,
                2890.0,
                2923.0,
                3065.0,
                3028.0,
                3027.0,
                3148.0,
                3153.0,
                3188.0,
                3191.0,
                3234.0,
                3250.0,
                3570.0,
                3793.0,
                3786.0,
                3821.0,
                4053.0,
                4399.0,
                4144.0,
                3904.0,
                4674.0,
                4656.0,
                4304.0,
                3736.0,
                3504.0,
                3846.0,
                4120.0,
                3049.0,
                2773.0,
                2638.0,
                2148.0,
                2193.0,
                2035.0,
                2251.0,
                2251.0,
                2196.0,
                2306.0,
                2320.0,
                3254.0,
                3285.0,
                3502.0,
                3581.0,
                2752.0,
                2444.0,
                2413.0,
                2492.0,
                2569.0,
                2723.0,
                2669.0,
                2818.0,
                2785.0,
                2920.0,
                2947.0,
                3007.0,
                3006.0,
                3097.0,
                3050.0,
                3058.0,
                3095.0,
                3175.0,
                3546.0,
                3661.0,
                3565.0,
                3608.0,
                3765.0,
                4088.0,
                3655.0,
                3768.0,
                4420.0,
                4385.0,
                3982.0,
                3486.0,
                3312.0,
                3610.0,
                3877.0,
                2930.0,
                2590.0,
