{
    "AcquisitionMatrixPE": 88,
    "AcquisitionNumber": 1,
    "AcquisitionTime": "16:38:6.000000",
    "BodyPartExamined": "BRAIN",
    "CoilString": "48HAP",
    "ConversionSoftware": "dcm2niix",
    "ConversionSoftwareVersion": "v1.0.20190410  GCC6.3.0",
    "DeviceSerialNumber": "0000000319335MR2",
    "EchoTime": 0.03,
    "EffectiveEchoSpacing": 0.000564,
    "FlipAngle": 75,
    "ImageOrientationPatientDICOM": [
        1,
        0,
        0,
        0,
        1,
        0
    ],
    "ImageType": [
        "ORIGINAL",
        "PRIMARY",
        "OTHER"
    ],
    "ImagingFrequency": 127.754,
    "InPlanePhaseEncodingDirectionDICOM": "COL",
    "InstitutionName": "Iowa_MRRF",
    "IntendedFor": [
        "func/sub-10058_task-ThalHi_run-005_bold.nii.gz",
        "func/sub-10058_task-ThalHi_run-006_bold.nii.gz",
        "func/sub-10058_task-ThalHi_run-007_bold.nii.gz",
        "func/sub-10058_task-ThalHi_run-008_bold.nii.gz"
    ],
    "MRAcquisitionType": "2D",
    "MagneticFieldStrength": 3,
    "Manufacturer": "GE",
    "ManufacturersModelName": "SIGNA_Premier",
    "Modality": "MR",
    "PatientPosition": "HFS",
    "PercentPhaseFOV": 100,
    "PhaseEncodingDirection": "j",
    "PhaseEncodingPolarityGE": "Flipped",
    "PixelBandwidth": 3906.25,
    "ProcedureStepDescription": "HWANG_NET",
    "ProtocolName": "EPI_FM_pepolar=0",
    "ReconMatrixPE": 128,
    "RepetitionTime": 1.8,
    "SAR": 0.0742483,
    "ScanOptions": "SAT_GEMS_EDR_GEMS_MP_GEMS_EPI_GEMS_HYPERBAND_GEMS_FS",
    "ScanningSequence": "EP_GR",
    "SequenceVariant": "SS",
    "SeriesDescription": "EPI_FM_pepolar=0",
    "SeriesNumber": 10,
    "SliceThickness": 2.5,
    "SliceTiming": [
        0,
        0.9,
        0.075,
        0.975,
        0.15,
        1.05,
        0.225,
        1.125,
        0.3,
        1.2,
        0.375,
        1.275,
        0.45,
        1.35,
        0.525,
        1.425,
        0.6,
        1.5,
        0.675,
        1.575,
        0.75,
        1.725,
        0.825,
        1.65,
        0,
        0.9,
        0.075,
        0.975,
        0.15,
        1.05,
        0.225,
        1.125,
        0.3,
        1.2,
        0.375,
        1.275,
        0.45,
        1.35,
        0.525,
        1.425,
        0.6,
        1.5,
        0.675,
        1.575,
        0.75,
        1.725,
        0.825,
        1.65
    ],
    "SoftwareVersions": "28_LX_MR_Software_release:RX28.0_R05_2035.a",
    "SpacingBetweenSlices": 2.5,
    "StationName": "Iowa3T",
    "TotalReadoutTime": 0.071628,
    "TriggerDelayTime": 10650,
    "dcmmeta_affine": [
        [
            -1.7187999486923218,
            0.0,
            0.0,
            109.1406021118164
        ],
        [
            0.0,
            1.7187999486923218,
            0.0,
            -117.4397964477539
        ],
        [
            0.0,
            0.0,
            2.5,
            -36.10413360595703
        ],
        [
            0.0,
            0.0,
            0.0,
            1.0
        ]
    ],
    "dcmmeta_reorient_transform": [
        [
            0.0,
            -1.0,
            0.0,
            127.0
        ],
        [
            1.0,
            0.0,
            0.0,
            0.0
        ],
        [
            0.0,
            0.0,
            -1.0,
            47.0
        ],
        [
            0.0,
            0.0,
            0.0,
            1.0
        ]
    ],
    "dcmmeta_shape": [
        128,
        128,
        48,
        6
    ],
    "dcmmeta_slice_dim": 2,
    "dcmmeta_version": 0.6,
    "global": {
        "const": {
            "AcquisitionMatrix": [
                88,
                0,
                0,
                88
            ],
            "AcquisitionNumber": 1,
            "AcquisitionTime": "163806",
            "AnatomicRegionSequence": [
                {
                    "CodeMeaning": "Brain",
                    "CodeValue": "T-A0100",
                    "CodingSchemeDesignator": "SRT"
                }
            ],
            "AngioFlag": "N",
            "BeatRejectionFlag": "Y",
            "BitsAllocated": 16,
            "BitsStored": 16,
            "BodyPartExamined": "BRAIN",
            "CardiacNumberOfImages": 0,
            "Columns": 128,
            "ContentTime": "163806",
            "EchoNumbers": 1,
            "EchoTime": 30.0,
            "EchoTrainLength": 1,
            "FlipAngle": 75.0,
            "GroupLength_0X40_0X0": 98,
            "GroupLength_0X7FE0_0X0": 32780,
            "HeartRate": 0,
            "HighBit": 15,
            "ImageOrientationPatient": [
                1.0,
                -0.0,
                0.0,
                -0.0,
                1.0,
                0.0
            ],
            "ImageType": [
                "ORIGINAL",
                "PRIMARY",
                "OTHER"
            ],
            "ImagedNucleus": "1H",
            "ImagesInAcquisition": 288,
            "ImagingFrequency": 127.753604,
            "InPlanePhaseEncodingDirection": "COL",
            "MRAcquisitionType": "2D",
            "MagneticFieldStrength": 3.0,
            "Manufacturer": "GE MEDICAL SYSTEMS",
            "ManufacturerModelName": "SIGNA Premier",
            "Modality": "MR",
            "NumberOfAverages": 1.0,
            "NumberOfTemporalPositions": 6,
            "PercentPhaseFieldOfView": 100.0,
            "PercentSampling": 100.0,
            "PerformedLocation": "Iowa",
            "PerformedProcedureStepStartTime": "155412",
            "PhotometricInterpretation": "MONOCHROME2",
            "PixelBandwidth": 3906.25,
            "PixelRepresentation": 1,
            "PixelSpacing": [
                1.7188,
                1.7188
            ],
            "ProtocolName": "HWANG_NET_THALHI",
            "ReceiveCoilName": "48HAP",
            "ReconstructionDiameter": 220.0,
            "ReferencedPerformedProcedureStepSequence": [
                {
                    "ReferencedSOPClassUID": "1.2.840.10008.3.1.2.3.3",
                    "ReferencedSOPInstanceUID": "1.2.840.113619.6.475.141096999575786424318578699028399605634"
                }
            ],
            "RepetitionTime": 1800.0,
            "Rows": 128,
            "SAR": 0.0742483,
            "SamplesPerPixel": 1,
            "ScanOptions": [
                "SAT_GEMS",
                "EDR_GEMS",
                "MP_GEMS",
                "EPI_GEMS",
                "HYPERBAND_GEMS",
                "FS"
            ],
            "ScanningSequence": [
                "EP",
                "GR"
            ],
            "SequenceVariant": "SS",
            "SeriesDescription": "EPI FM pepolar=0",
            "SeriesNumber": 10,
            "SeriesTime": "163806",
            "SliceThickness": 2.5,
            "SmallestImagePixelValue": 0,
            "SoftwareVersions": [
                "28",
                "LX",
                "MR Software release:RX28.0_R05_2035.a"
            ],
            "SpacingBetweenSlices": 2.5,
            "SpecificCharacterSet": "ISO_IR 100",
            "StackID": "1",
            "StudyID": "1875",
            "StudyTime": "155435",
            "TriggerWindow": 0,
            "VariableFlipAngleFlag": "N"
        },
        "slices": {
            "InstanceNumber": [
                1,
                2,
                3,
                4,
                5,
                6,
                7,
                8,
                9,
                10,
                11,
                12,
                13,
                14,
                15,
                16,
                17,
                18,
                19,
                20,
                21,
                22,
                23,
                24,
                25,
                26,
                27,
                28,
                29,
                30,
                31,
                32,
                33,
                34,
                35,
                36,
                37,
                38,
                39,
                40,
                41,
                42,
                43,
                44,
                45,
                46,
                47,
                48,
                49,
                50,
                51,
                52,
                53,
                54,
                55,
                56,
                57,
                58,
                59,
                60,
                61,
                62,
                63,
                64,
                65,
                66,
                67,
                68,
                69,
                70,
                71,
                72,
                73,
                74,
                75,
                76,
                77,
                78,
                79,
                80,
                81,
                82,
                83,
                84,
                85,
                86,
                87,
                88,
                89,
                90,
                91,
                92,
                93,
                94,
                95,
                96,
                97,
                98,
                99,
                100,
                101,
                102,
                103,
                104,
                105,
                106,
                107,
                108,
                109,
                110,
                111,
                112,
                113,
                114,
                115,
                116,
                117,
                118,
                119,
                120,
                121,
                122,
                123,
                124,
                125,
                126,
                127,
                128,
                129,
                130,
                131,
                132,
                133,
                134,
                135,
                136,
                137,
                138,
                139,
                140,
                141,
                142,
                143,
                144,
                145,
                146,
                147,
                148,
                149,
                150,
                151,
                152,
                153,
                154,
                155,
                156,
                157,
                158,
                159,
                160,
                161,
                162,
                163,
                164,
                165,
                166,
                167,
                168,
                169,
                170,
                171,
                172,
                173,
                174,
                175,
                176,
                177,
                178,
                179,
                180,
                181,
                182,
                183,
                184,
                185,
                186,
                187,
                188,
                189,
                190,
                191,
                192,
                193,
                194,
                195,
                196,
                197,
                198,
                199,
                200,
                201,
                202,
                203,
                204,
                205,
                206,
                207,
                208,
                209,
                210,
                211,
                212,
                213,
                214,
                215,
                216,
                217,
                218,
                219,
                220,
                221,
                222,
                223,
                224,
                225,
                226,
                227,
                228,
                229,
                230,
                231,
                232,
                233,
                234,
                235,
                236,
                237,
                238,
                239,
                240,
                241,
                242,
                243,
                244,
                245,
                246,
                247,
                248,
                249,
                250,
                251,
                252,
                253,
                254,
                255,
                256,
                257,
                258,
                259,
                260,
                261,
                262,
                263,
                264,
                265,
                266,
                267,
                268,
                269,
                270,
                271,
                272,
                273,
                274,
                275,
                276,
                277,
                278,
                279,
                280,
                281,
                282,
                283,
                284,
                285,
                286,
                287,
                288
            ],
            "LargestImagePixelValue": [
                6712,
                5316,
                6964,
                4382,
                5367,
                4843,
                5275,
                5356,
                6188,
                5772,
                6167,
                6156,
                7496,
                7604,
                7078,
                6084,
                6799,
                6008,
                7119,
                6069,
                7548,
                7237,
                7512,
                7292,
                7835,
                8066,
                8575,
                10146,
                9601,
                8278,
                9655,
                10415,
                10911,
                10336,
                10663,
                8975,
                10155,
                9498,
                10121,
                10219,
                10372,
                10217,
                9879,
                9879,
                9986,
                8938,
                7919,
                6896,
                4585,
                4568,
                4673,
                3716,
                4164,
                4067,
                4108,
                4184,
                4950,
                4530,
                4919,
                4873,
                5850,
                6403,
                6152,
                5300,
                5552,
                5269,
                5905,
                5351,
                6219,
                6225,
                6150,
                6273,
                6650,
                7455,
                7466,
                8754,
                8228,
                7325,
                8381,
                9174,
                9460,
                9033,
                9068,
                8106,
                8710,
                8347,
                8703,
                8980,
                9164,
                8507,
                8609,
                8665,
                8690,
                7870,
                7067,
                6230,
                4592,
                4321,
                4473,
                3616,
                4026,
                3959,
                3995,
                3922,
                4633,
                4342,
                4642,
                4657,
                5807,
                5597,
                5863,
                5291,
                5407,
                5108,
                5646,
                5263,
                5947,
                6054,
                5935,
                5480,
                6063,
                7078,
                7060,
                8341,
                7678,
                6981,
                7714,
                8803,
                8887,
                8542,
                8625,
                7700,
                8142,
                7993,
                8147,
                8612,
                8617,
                8497,
                8196,
                8331,
                8214,
                7518,
                6677,
                5977,
                4869,
                4134,
                4373,
                3660,
                4052,
                3883,
                3983,
                3945,
                4560,
                4410,
                4583,
                4687,
                5057,
                6138,
                5574,
                5262,
                5360,
                5081,
                5618,
                5179,
                5844,
                6064,
                5847,
                5971,
                6131,
                6910,
                6865,
                8136,
                7566,
                6773,
                7742,
                8523,
                8669,
                8403,
                8380,
                7532,
                7974,
                7783,
                8020,
                8356,
                8394,
                8314,
                8059,
                8058,
                7983,
                7296,
                6506,
                5669,
                5539,
                3958,
                3702,
                3923,
                3915,
                3998,
                3961,
                3952,
                4506,
                4525,
                4702,
                4747,
                4957,
                5650,
                5258,
                5229,
                5388,
                5148,
                5604,
                5226,
                5905,
                6077,
                5993,
                5810,
                5873,
                6788,
                6555,
                8220,
                7516,
                6860,
                7657,
                8649,
                8627,
                8285,
                8245,
                7548,
                7930,
                7783,
                8028,
                8248,
                8372,
                8245,
                7972,
                8032,
                7907,
                7155,
                6435,
                5801,
                4601,
                4718,
                3690,
                3737,
                3911,
                3914,
                4000,
                3899,
                4479,
                4547,
                4793,
                4779,
                4935,
                5554,
                5342,
                5179,
                5370,
                5116,
                5587,
                5226,
                5919,
                6054,
                5979,
                5883,
                5950,
                6858,
                6855,
                7368,
                7445,
                6787,
                7415,
                8474,
                8584,
                8238,
                8199,
                7522,
                7845,
                7739,
                7680,
                8293,
                8278,
                8255,
                7932,
                7996,
                7909,
                7175,
                6341,
                5795
            ],
            "TriggerTime": [
                75.0,
                975.0,
                150.0,
                1050.0,
                225.0,
                1125.0,
                300.0,
                1200.0,
                375.0,
                1275.0,
                450.0,
                1350.0,
                525.0,
                1425.0,
                600.0,
                1500.0,
                675.0,
                1575.0,
                750.0,
                1650.0,
                825.0,
                1800.0,
                900.0,
                1725.0,
                75.0,
                975.0,
                150.0,
                1050.0,
                225.0,
                1125.0,
                300.0,
                1200.0,
                375.0,
                1275.0,
                450.0,
                1350.0,
                525.0,
                1425.0,
                600.0,
                1500.0,
                675.0,
                1575.0,
                750.0,
                1650.0,
                825.0,
                1800.0,
                900.0,
                1725.0,
                1875.0,
                2775.0,
                1950.0,
                2850.0,
                2025.0,
                2925.0,
                2100.0,
                3000.0,
                2175.0,
                3075.0,
                2250.0,
                3150.0,
                2325.0,
                3225.0,
                2400.0,
                3300.0,
                2475.0,
                3375.0,
                2550.0,
                3450.0,
                2625.0,
                3600.0,
                2700.0,
                3525.0,
                1875.0,
                2775.0,
                1950.0,
                2850.0,
                2025.0,
                2925.0,
                2100.0,
                3000.0,
                2175.0,
                3075.0,
                2250.0,
                3150.0,
                2325.0,
                3225.0,
                2400.0,
                3300.0,
                2475.0,
                3375.0,
                2550.0,
                3450.0,
                2625.0,
                3600.0,
                2700.0,
                3525.0,
                3675.0,
                4575.0,
                3750.0,
                4650.0,
                3825.0,
                4725.0,
                3900.0,
                4800.0,
                3975.0,
                4875.0,
                4050.0,
                4950.0,
                4125.0,
                5025.0,
                4200.0,
                5100.0,
                4275.0,
                5175.0,
                4350.0,
                5250.0,
                4425.0,
                5400.0,
                4500.0,
                5325.0,
                3675.0,
                4575.0,
                3750.0,
                4650.0,
                3825.0,
                4725.0,
                3900.0,
                4800.0,
                3975.0,
                4875.0,
                4050.0,
                4950.0,
                4125.0,
                5025.0,
                4200.0,
                5100.0,
                4275.0,
                5175.0,
                4350.0,
                5250.0,
                4425.0,
                5400.0,
                4500.0,
                5325.0,
                5475.0,
                6375.0,
                5550.0,
                6450.0,
                5625.0,
                6525.0,
                5700.0,
                6600.0,
                5775.0,
                6675.0,
                5850.0,
                6750.0,
                5925.0,
                6825.0,
                6000.0,
                6900.0,
                6075.0,
                6975.0,
                6150.0,
                7050.0,
                6225.0,
                7200.0,
                6300.0,
                7125.0,
                5475.0,
                6375.0,
                5550.0,
                6450.0,
                5625.0,
                6525.0,
                5700.0,
                6600.0,
                5775.0,
                6675.0,
                5850.0,
                6750.0,
                5925.0,
                6825.0,
                6000.0,
                6900.0,
                6075.0,
                6975.0,
                6150.0,
                7050.0,
                6225.0,
                7200.0,
                6300.0,
                7125.0,
                7275.0,
                8175.0,
                7350.0,
                8250.0,
                7425.0,
                8325.0,
                7500.0,
                8400.0,
                7575.0,
                8475.0,
                7650.0,
                8550.0,
                7725.0,
                8625.0,
                7800.0,
                8700.0,
                7875.0,
                8775.0,
                7950.0,
                8850.0,
                8025.0,
                9000.0,
                8100.0,
                8925.0,
                7275.0,
                8175.0,
                7350.0,
                8250.0,
                7425.0,
                8325.0,
                7500.0,
                8400.0,
                7575.0,
                8475.0,
                7650.0,
                8550.0,
                7725.0,
                8625.0,
                7800.0,
                8700.0,
                7875.0,
                8775.0,
                7950.0,
                8850.0,
                8025.0,
                9000.0,
                8100.0,
                8925.0,
                9075.0,
                9975.0,
                9150.0,
                10050.0,
                9225.0,
                10125.0,
                9300.0,
                10200.0,
                9375.0,
                10275.0,
                9450.0,
                10350.0,
                9525.0,
                10425.0,
                9600.0,
                10500.0,
                9675.0,
                10575.0,
                9750.0,
                10650.0,
                9825.0,
                10800.0,
                9900.0,
                10725.0,
                9075.0,
                9975.0,
                9150.0,
                10050.0,
                9225.0,
                10125.0,
                9300.0,
                10200.0,
                9375.0,
                10275.0,
                9450.0,
                10350.0,
                9525.0,
                10425.0,
                9600.0,
                10500.0,
                9675.0,
                10575.0,
                9750.0,
                10650.0,
                9825.0,
                10800.0,
                9900.0,
                10725.0
            ],
            "WindowCenter": [
                4027.0,
                3189.0,
                4178.0,
                2629.0,
                3220.0,
                2905.0,
                3165.0,
                3213.0,
                3712.0,
                3463.0,
                3700.0,
                3693.0,
                4497.0,
                4562.0,
                4246.0,
                3650.0,
                4079.0,
                3604.0,
                4271.0,
                3641.0,
                4528.0,
                4342.0,
                4507.0,
                4375.0,
                4701.0,
                4839.0,
                5145.0,
                6087.0,
                5760.0,
                4966.0,
                5793.0,
                6249.0,
                6546.0,
                6201.0,
                6397.0,
                5385.0,
                6093.0,
                5698.0,
                6072.0,
                6131.0,
                6223.0,
                6130.0,
                5927.0,
                5927.0,
                5991.0,
                5362.0,
                4751.0,
                4137.0,
                2751.0,
                2740.0,
                2803.0,
                2229.0,
                2498.0,
                2440.0,
                2464.0,
                2510.0,
                2970.0,
                2718.0,
                2951.0,
                2923.0,
                3510.0,
                3841.0,
                3691.0,
                3180.0,
                3331.0,
                3161.0,
                3543.0,
                3210.0,
                3731.0,
                3735.0,
                3690.0,
                3763.0,
                3990.0,
                4473.0,
                4479.0,
                5252.0,
                4936.0,
                4395.0,
                5028.0,
                5504.0,
                5676.0,
                5419.0,
                5440.0,
                4863.0,
                5226.0,
                5008.0,
                5221.0,
                5388.0,
                5498.0,
                5104.0,
                5165.0,
                5199.0,
                5214.0,
                4722.0,
                4240.0,
                3738.0,
                2755.0,
                2592.0,
                2683.0,
                2169.0,
                2415.0,
                2375.0,
                2397.0,
                2353.0,
                2779.0,
                2605.0,
                2785.0,
                2794.0,
                3484.0,
                3358.0,
                3517.0,
                3174.0,
                3244.0,
                3064.0,
                3387.0,
                3157.0,
                3568.0,
                3632.0,
                3561.0,
                3288.0,
                3637.0,
                4246.0,
                4236.0,
                5004.0,
                4606.0,
                4188.0,
                4628.0,
                5281.0,
                5332.0,
                5125.0,
                5175.0,
                4620.0,
                4885.0,
                4795.0,
                4888.0,
                5167.0,
                5170.0,
                5098.0,
                4917.0,
