{
    "AcquisitionMatrixPE": 88,
    "AcquisitionNumber": 1,
    "AcquisitionTime": "14:00:13.000000",
    "BodyPartExamined": "BRAIN",
    "CoilString": "48HAP",
    "ConversionSoftware": "dcm2niix",
    "ConversionSoftwareVersion": "v1.0.20190410  GCC6.3.0",
    "DeviceSerialNumber": "0000000319335MR2",
    "EchoTime": 0.03,
    "EffectiveEchoSpacing": 0.000564,
    "FlipAngle": 75,
    "ImageOrientationPatientDICOM": [
        1,
        0,
        0,
        0,
        1,
        0
    ],
    "ImageType": [
        "ORIGINAL",
        "PRIMARY",
        "OTHER"
    ],
    "ImagingFrequency": 127.754,
    "InPlanePhaseEncodingDirectionDICOM": "COL",
    "InstitutionName": "Iowa_MRRF",
    "IntendedFor": [
        "func/sub-10063_task-ThalHi_run-005_bold.nii.gz",
        "func/sub-10063_task-ThalHi_run-006_bold.nii.gz",
        "func/sub-10063_task-ThalHi_run-007_bold.nii.gz",
        "func/sub-10063_task-ThalHi_run-008_bold.nii.gz"
    ],
    "MRAcquisitionType": "2D",
    "MagneticFieldStrength": 3,
    "Manufacturer": "GE",
    "ManufacturersModelName": "SIGNA_Premier",
    "Modality": "MR",
    "PatientPosition": "HFS",
    "PercentPhaseFOV": 100,
    "PhaseEncodingDirection": "j-",
    "PhaseEncodingPolarityGE": "Unflipped",
    "PixelBandwidth": 3906.25,
    "ProcedureStepDescription": "HWANG_NET",
    "ProtocolName": "EPI_FM_pepolar=1",
    "ReconMatrixPE": 128,
    "RepetitionTime": 1.8,
    "SAR": 0.0724978,
    "ScanOptions": "SAT_GEMS_EDR_GEMS_MP_GEMS_EPI_GEMS_HYPERBAND_GEMS_FS",
    "ScanningSequence": "EP_GR",
    "SequenceVariant": "SS",
    "SeriesDescription": "EPI_FM_pepolar=1",
    "SeriesNumber": 11,
    "SliceThickness": 2.5,
    "SliceTiming": [
        0,
        0.9,
        0.075,
        0.975,
        0.15,
        1.05,
        0.225,
        1.125,
        0.3,
        1.2,
        0.375,
        1.275,
        0.45,
        1.35,
        0.525,
        1.425,
        0.6,
        1.5,
        0.675,
        1.575,
        0.75,
        1.725,
        0.825,
        1.65,
        0,
        0.9,
        0.075,
        0.975,
        0.15,
        1.05,
        0.225,
        1.125,
        0.3,
        1.2,
        0.375,
        1.275,
        0.45,
        1.35,
        0.525,
        1.425,
        0.6,
        1.5,
        0.675,
        1.575,
        0.75,
        1.725,
        0.825,
        1.65
    ],
    "SoftwareVersions": "28_LX_MR_Software_release:RX28.0_R05_2035.a",
    "SpacingBetweenSlices": 2.5,
    "StationName": "Iowa3T",
    "TotalReadoutTime": 0.071628,
    "TriggerDelayTime": 10650,
    "dcmmeta_affine": [
        [
            -1.7187999486923218,
            0.0,
            0.0,
            106.0024642944336
        ],
        [
            0.0,
            1.7187999486923218,
            0.0,
            -126.80299377441406
        ],
        [
            0.0,
            0.0,
            2.5,
            -22.23546600341797
        ],
        [
            0.0,
            0.0,
            0.0,
            1.0
        ]
    ],
    "dcmmeta_reorient_transform": [
        [
            0.0,
            -1.0,
            0.0,
            127.0
        ],
        [
            1.0,
            0.0,
            0.0,
            0.0
        ],
        [
            0.0,
            0.0,
            -1.0,
            47.0
        ],
        [
            0.0,
            0.0,
            0.0,
            1.0
        ]
    ],
    "dcmmeta_shape": [
        128,
        128,
        48,
        6
    ],
    "dcmmeta_slice_dim": 2,
    "dcmmeta_version": 0.6,
    "global": {
        "const": {
            "AcquisitionMatrix": [
                88,
                0,
                0,
                88
            ],
            "AcquisitionNumber": 1,
            "AcquisitionTime": "140013",
            "AnatomicRegionSequence": [
                {
                    "CodeMeaning": "Brain",
                    "CodeValue": "T-A0100",
                    "CodingSchemeDesignator": "SRT"
                }
            ],
            "AngioFlag": "N",
            "BeatRejectionFlag": "Y",
            "BitsAllocated": 16,
            "BitsStored": 16,
            "BodyPartExamined": "BRAIN",
            "CardiacNumberOfImages": 0,
            "Columns": 128,
            "ContentTime": "140013",
            "EchoNumbers": 1,
            "EchoTime": 30.0,
            "EchoTrainLength": 1,
            "FlipAngle": 75.0,
            "GroupLength_0X40_0X0": 98,
            "GroupLength_0X7FE0_0X0": 32780,
            "HeartRate": 0,
            "HighBit": 15,
            "ImageOrientationPatient": [
                1.0,
                -0.0,
                0.0,
                -0.0,
                1.0,
                0.0
            ],
            "ImageType": [
                "ORIGINAL",
                "PRIMARY",
                "OTHER"
            ],
            "ImagedNucleus": "1H",
            "ImagesInAcquisition": 288,
            "ImagingFrequency": 127.753583,
            "InPlanePhaseEncodingDirection": "COL",
            "MRAcquisitionType": "2D",
            "MagneticFieldStrength": 3.0,
            "Manufacturer": "GE MEDICAL SYSTEMS",
            "ManufacturerModelName": "SIGNA Premier",
            "Modality": "MR",
            "NumberOfAverages": 1.0,
            "NumberOfTemporalPositions": 6,
            "PercentPhaseFieldOfView": 100.0,
            "PercentSampling": 100.0,
            "PerformedLocation": "Iowa",
            "PerformedProcedureStepStartTime": "131742",
            "PhotometricInterpretation": "MONOCHROME2",
            "PixelBandwidth": 3906.25,
            "PixelRepresentation": 1,
            "PixelSpacing": [
                1.7188,
                1.7188
            ],
            "ProtocolName": "HWANG_NET_THALHI",
            "ReceiveCoilName": "48HAP",
            "ReconstructionDiameter": 220.0,
            "ReferencedPerformedProcedureStepSequence": [
                {
                    "ReferencedSOPClassUID": "1.2.840.10008.3.1.2.3.3",
                    "ReferencedSOPInstanceUID": "1.2.840.113619.6.475.14630983280839904291316834110930794864"
                }
            ],
            "RepetitionTime": 1800.0,
            "Rows": 128,
            "SAR": 0.0724978,
            "SamplesPerPixel": 1,
            "ScanOptions": [
                "SAT_GEMS",
                "EDR_GEMS",
                "MP_GEMS",
                "EPI_GEMS",
                "HYPERBAND_GEMS",
                "FS"
            ],
            "ScanningSequence": [
                "EP",
                "GR"
            ],
            "SequenceVariant": "SS",
            "SeriesDescription": "EPI FM pepolar=1",
            "SeriesNumber": 11,
            "SeriesTime": "140013",
            "SliceThickness": 2.5,
            "SmallestImagePixelValue": 0,
            "SoftwareVersions": [
                "28",
                "LX",
                "MR Software release:RX28.0_R05_2035.a"
            ],
            "SpacingBetweenSlices": 2.5,
            "SpecificCharacterSet": "ISO_IR 100",
            "StackID": "1",
            "StudyID": "2097",
            "StudyTime": "131748",
            "TriggerWindow": 0,
            "VariableFlipAngleFlag": "N"
        },
        "slices": {
            "InstanceNumber": [
                1,
                2,
                3,
                4,
                5,
                6,
                7,
                8,
                9,
                10,
                11,
                12,
                13,
                14,
                15,
                16,
                17,
                18,
                19,
                20,
                21,
                22,
                23,
                24,
                25,
                26,
                27,
                28,
                29,
                30,
                31,
                32,
                33,
                34,
                35,
                36,
                37,
                38,
                39,
                40,
                41,
                42,
                43,
                44,
                45,
                46,
                47,
                48,
                49,
                50,
                51,
                52,
                53,
                54,
                55,
                56,
                57,
                58,
                59,
                60,
                61,
                62,
                63,
                64,
                65,
                66,
                67,
                68,
                69,
                70,
                71,
                72,
                73,
                74,
                75,
                76,
                77,
                78,
                79,
                80,
                81,
                82,
                83,
                84,
                85,
                86,
                87,
                88,
                89,
                90,
                91,
                92,
                93,
                94,
                95,
                96,
                97,
                98,
                99,
                100,
                101,
                102,
                103,
                104,
                105,
                106,
                107,
                108,
                109,
                110,
                111,
                112,
                113,
                114,
                115,
                116,
                117,
                118,
                119,
                120,
                121,
                122,
                123,
                124,
                125,
                126,
                127,
                128,
                129,
                130,
                131,
                132,
                133,
                134,
                135,
                136,
                137,
                138,
                139,
                140,
                141,
                142,
                143,
                144,
                145,
                146,
                147,
                148,
                149,
                150,
                151,
                152,
                153,
                154,
                155,
                156,
                157,
                158,
                159,
                160,
                161,
                162,
                163,
                164,
                165,
                166,
                167,
                168,
                169,
                170,
                171,
                172,
                173,
                174,
                175,
                176,
                177,
                178,
                179,
                180,
                181,
                182,
                183,
                184,
                185,
                186,
                187,
                188,
                189,
                190,
                191,
                192,
                193,
                194,
                195,
                196,
                197,
                198,
                199,
                200,
                201,
                202,
                203,
                204,
                205,
                206,
                207,
                208,
                209,
                210,
                211,
                212,
                213,
                214,
                215,
                216,
                217,
                218,
                219,
                220,
                221,
                222,
                223,
                224,
                225,
                226,
                227,
                228,
                229,
                230,
                231,
                232,
                233,
                234,
                235,
                236,
                237,
                238,
                239,
                240,
                241,
                242,
                243,
                244,
                245,
                246,
                247,
                248,
                249,
                250,
                251,
                252,
                253,
                254,
                255,
                256,
                257,
                258,
                259,
                260,
                261,
                262,
                263,
                264,
                265,
                266,
                267,
                268,
                269,
                270,
                271,
                272,
                273,
                274,
                275,
                276,
                277,
                278,
                279,
                280,
                281,
                282,
                283,
                284,
                285,
                286,
                287,
                288
            ],
            "LargestImagePixelValue": [
                6911,
                5104,
                7328,
                7866,
                7249,
                5460,
                6173,
                5563,
                6652,
                6172,
                6621,
                6591,
                7198,
                6946,
                7099,
                6173,
                7346,
                7128,
                8052,
                7074,
                8225,
                8038,
                9389,
                9055,
                9788,
                9200,
                11088,
                10570,
                10100,
                9505,
                10469,
                10898,
                13371,
                11875,
                13000,
                11921,
                12802,
                10411,
                12623,
                11703,
                14830,
                13674,
                14055,
                12965,
                12414,
                14444,
                12848,
                9888,
                5414,
                4100,
                5787,
                5886,
                5399,
                4650,
                4792,
                4897,
                5072,
                5320,
                5262,
                5588,
                5795,
                5841,
                5703,
                5470,
                5486,
                5846,
                6414,
                6214,
                6345,
                6708,
                7276,
                7570,
                7057,
                7519,
                8820,
                8741,
                8017,
                7926,
                8771,
                9144,
                10989,
                9668,
                10549,
                9933,
                10477,
                8971,
                10606,
                10001,
                12379,
                11801,
                11654,
                11204,
                10767,
                12703,
                11115,
                8873,
                6141,
                4055,
                5395,
                5556,
                4803,
                4557,
                4508,
                4779,
                4897,
                5149,
                5028,
                5476,
                5545,
                5688,
                5264,
                5284,
                5340,
                5751,
                6156,
                6066,
                6150,
                6585,
                6779,
                7200,
                6598,
                7227,
                8281,
                8396,
                7403,
                7499,
                8351,
                8612,
                9154,
                9539,
                9897,
                9313,
                9754,
                8596,
                9948,
                9597,
                11622,
                11197,
                11186,
                10721,
                10211,
                12059,
                11133,
                8581,
                7461,
                5576,
                5230,
                5591,
                4733,
                4577,
                4585,
                4800,
                4910,
                5113,
                5042,
                5404,
                5384,
                5696,
                5117,
                5193,
                5284,
                5736,
                6225,
                5941,
                6093,
                6609,
                6700,
                7099,
                6573,
                7202,
                8167,
                8286,
                7270,
                7412,
                8197,
                8502,
                8981,
                9441,
                9695,
                9184,
                9422,
                8733,
                9873,
                9445,
                11320,
                10920,
                10734,
                10560,
                10021,
                11685,
                10874,
                8448,
                6738,
                4148,
                5653,
                5520,
                4847,
                4570,
                4569,
                4785,
                4878,
                5131,
                5006,
                5414,
                5207,
                5706,
                5193,
                5229,
                5325,
                5704,
                6287,
                6083,
                6203,
                6580,
                6845,
                7161,
                6590,
                7227,
                8164,
                8319,
                7266,
                7425,
                8146,
                8423,
                9890,
                9125,
                9700,
                9055,
                9232,
                8710,
                9640,
                9341,
                10713,
                10873,
                11040,
                10469,
                9838,
                11565,
                10923,
                8421,
                6140,
                3977,
                5202,
                5316,
                4915,
                4568,
                4575,
                4779,
                4826,
                5143,
                4969,
                5429,
                5405,
                5623,
                5324,
                5275,
                5241,
                5826,
                6226,
                6187,
                6228,
                6555,
                6844,
                7099,
                6531,
                7272,
                8160,
                8313,
                7378,
                7409,
                7956,
                8459,
                10020,
                8945,
                9540,
                8958,
                9075,
                8535,
                9453,
                9310,
                11198,
                10675,
                10780,
                10380,
                9877,
                11585,
                10723,
                8537
            ],
            "TriggerTime": [
                75.0,
                975.0,
                150.0,
                1050.0,
                225.0,
                1125.0,
                300.0,
                1200.0,
                375.0,
                1275.0,
                450.0,
                1350.0,
                525.0,
                1425.0,
                600.0,
                1500.0,
                675.0,
                1575.0,
                750.0,
                1650.0,
                825.0,
                1800.0,
                900.0,
                1725.0,
                75.0,
                975.0,
                150.0,
                1050.0,
                225.0,
                1125.0,
                300.0,
                1200.0,
                375.0,
                1275.0,
                450.0,
                1350.0,
                525.0,
                1425.0,
                600.0,
                1500.0,
                675.0,
                1575.0,
                750.0,
                1650.0,
                825.0,
                1800.0,
                900.0,
                1725.0,
                1875.0,
                2775.0,
                1950.0,
                2850.0,
                2025.0,
                2925.0,
                2100.0,
                3000.0,
                2175.0,
                3075.0,
                2250.0,
                3150.0,
                2325.0,
                3225.0,
                2400.0,
                3300.0,
                2475.0,
                3375.0,
                2550.0,
                3450.0,
                2625.0,
                3600.0,
                2700.0,
                3525.0,
                1875.0,
                2775.0,
                1950.0,
                2850.0,
                2025.0,
                2925.0,
                2100.0,
                3000.0,
                2175.0,
                3075.0,
                2250.0,
                3150.0,
                2325.0,
                3225.0,
                2400.0,
                3300.0,
                2475.0,
                3375.0,
                2550.0,
                3450.0,
                2625.0,
                3600.0,
                2700.0,
                3525.0,
                3675.0,
                4575.0,
                3750.0,
                4650.0,
                3825.0,
                4725.0,
                3900.0,
                4800.0,
                3975.0,
                4875.0,
                4050.0,
                4950.0,
                4125.0,
                5025.0,
                4200.0,
                5100.0,
                4275.0,
                5175.0,
                4350.0,
                5250.0,
                4425.0,
                5400.0,
                4500.0,
                5325.0,
                3675.0,
                4575.0,
                3750.0,
                4650.0,
                3825.0,
                4725.0,
                3900.0,
                4800.0,
                3975.0,
                4875.0,
                4050.0,
                4950.0,
                4125.0,
                5025.0,
                4200.0,
                5100.0,
                4275.0,
                5175.0,
                4350.0,
                5250.0,
                4425.0,
                5400.0,
                4500.0,
                5325.0,
                5475.0,
                6375.0,
                5550.0,
                6450.0,
                5625.0,
                6525.0,
                5700.0,
                6600.0,
                5775.0,
                6675.0,
                5850.0,
                6750.0,
                5925.0,
                6825.0,
                6000.0,
                6900.0,
                6075.0,
                6975.0,
                6150.0,
                7050.0,
                6225.0,
                7200.0,
                6300.0,
                7125.0,
                5475.0,
                6375.0,
                5550.0,
                6450.0,
                5625.0,
                6525.0,
                5700.0,
                6600.0,
                5775.0,
                6675.0,
                5850.0,
                6750.0,
                5925.0,
                6825.0,
                6000.0,
                6900.0,
                6075.0,
                6975.0,
                6150.0,
                7050.0,
                6225.0,
                7200.0,
                6300.0,
                7125.0,
                7275.0,
                8175.0,
                7350.0,
                8250.0,
                7425.0,
                8325.0,
                7500.0,
                8400.0,
                7575.0,
                8475.0,
                7650.0,
                8550.0,
                7725.0,
                8625.0,
                7800.0,
                8700.0,
                7875.0,
                8775.0,
                7950.0,
                8850.0,
                8025.0,
                9000.0,
                8100.0,
                8925.0,
                7275.0,
                8175.0,
                7350.0,
                8250.0,
                7425.0,
                8325.0,
                7500.0,
                8400.0,
                7575.0,
                8475.0,
                7650.0,
                8550.0,
                7725.0,
                8625.0,
                7800.0,
                8700.0,
                7875.0,
                8775.0,
                7950.0,
                8850.0,
                8025.0,
                9000.0,
                8100.0,
                8925.0,
                9075.0,
                9975.0,
                9150.0,
                10050.0,
                9225.0,
                10125.0,
                9300.0,
                10200.0,
                9375.0,
                10275.0,
                9450.0,
                10350.0,
                9525.0,
                10425.0,
                9600.0,
                10500.0,
                9675.0,
                10575.0,
                9750.0,
                10650.0,
                9825.0,
                10800.0,
                9900.0,
                10725.0,
                9075.0,
                9975.0,
                9150.0,
                10050.0,
                9225.0,
                10125.0,
                9300.0,
                10200.0,
                9375.0,
                10275.0,
                9450.0,
                10350.0,
                9525.0,
                10425.0,
                9600.0,
                10500.0,
                9675.0,
                10575.0,
                9750.0,
                10650.0,
                9825.0,
                10800.0,
                9900.0,
                10725.0
            ],
            "WindowCenter": [
                4146.0,
                3062.0,
                4396.0,
                4719.0,
                4349.0,
                3276.0,
                3703.0,
                3337.0,
                3991.0,
                3703.0,
                3972.0,
                3954.0,
                4318.0,
                4167.0,
                4259.0,
                3703.0,
                4407.0,
                4276.0,
                4831.0,
                4244.0,
                4935.0,
                4822.0,
                5633.0,
                5433.0,
                5872.0,
                5520.0,
                6652.0,
                6342.0,
                6060.0,
                5703.0,
                6281.0,
                6538.0,
                8022.0,
                7125.0,
                7800.0,
                7152.0,
                7681.0,
                6246.0,
                7573.0,
                7021.0,
                8898.0,
                8204.0,
                8433.0,
                7779.0,
                7448.0,
                8666.0,
                7708.0,
                5932.0,
                3248.0,
                2460.0,
                3472.0,
                3531.0,
                3239.0,
                2790.0,
                2875.0,
                2938.0,
                3043.0,
                3192.0,
                3157.0,
                3352.0,
                3477.0,
                3504.0,
                3421.0,
                3282.0,
                3291.0,
                3507.0,
                3848.0,
                3728.0,
                3807.0,
                4024.0,
                4365.0,
                4542.0,
                4234.0,
                4511.0,
                5292.0,
                5244.0,
                4810.0,
                4755.0,
                5262.0,
                5486.0,
                6593.0,
                5800.0,
                6329.0,
                5959.0,
                6286.0,
                5382.0,
                6363.0,
                6000.0,
                7427.0,
                7080.0,
                6992.0,
                6722.0,
                6460.0,
                7621.0,
                6669.0,
                5323.0,
                3684.0,
                2433.0,
                3237.0,
                3333.0,
                2881.0,
                2734.0,
                2704.0,
                2867.0,
                2938.0,
                3089.0,
                3016.0,
                3285.0,
                3327.0,
                3412.0,
                3158.0,
                3170.0,
                3204.0,
                3450.0,
                3693.0,
                3639.0,
                3690.0,
                3951.0,
                4067.0,
                4320.0,
                3958.0,
                4336.0,
                4968.0,
                5037.0,
                4441.0,
                4499.0,
                5010.0,
                5167.0,
                5492.0,
                5723.0,
                5938.0,
                5587.0,
                5852.0,
                5157.0,
                5968.0,
                5758.0,
                6973.0,
